Data from LiYF4_Nd_2.5 pc_150 C_Subt2__0__18-14-01-909.txt Node

Date: Thu May 14 18:14:01 CEST 2026
User: NP.5066655
Spectrometer: FLMT06117
Trigger mode: 0
Integration Time (sec): 2.500000E-1
Scans to average: 1
Electric dark correction enabled: true
Nonlinearity correction enabled: false
Boxcar width: 0
XAxis mode: Wavelengths
Number of Pixels in Spectrum: 3648
>>>>>Begin Spectral Data<<<<<
346.633	69.31643
346.852	69.31643
347.071	69.31643
347.29	16.22299
347.51	-38.83687
347.729	20.15584
347.948	22.12227
348.167	57.51789
348.386	26.05511
348.606	-29.00475
348.825	-17.20621
349.044	41.7865
349.263	-97.82958
349.482	-50.63541
349.701	47.68577
349.92	18.18942
350.139	-19.17263
350.358	-64.40037
350.577	112.57775
350.796	35.88723
351.015	197.13397
351.234	-66.3668
351.453	10.32372
351.672	35.88723
351.891	24.08869
352.11	65.38359
352.329	-17.20621
352.548	43.75293
352.767	-89.96388
352.986	59.48431
353.204	-133.2252
353.423	-21.13905
353.642	-84.06461
353.861	-32.9376
354.08	20.15584
354.298	-34.90402
354.517	-66.3668
354.736	47.68577
354.955	-44.73614
355.173	-30.97117
355.392	22.12227
355.611	6.39088
355.829	-23.10548
356.048	-54.56826
356.267	-38.83687
356.485	-29.00475
356.704	104.71206
356.922	-1.47482
357.141	4.42445
357.36	10.32372
357.578	4.42445
357.797	12.29015
358.015	-52.60183
358.234	8.3573
358.452	-7.37409
358.671	-180.41937
358.889	134.20841
359.108	-23.10548
359.326	4.42445
359.544	85.04782
359.763	-50.63541
359.981	26.05511
360.2	47.68577
360.418	-68.33322
360.636	-68.33322
360.855	87.01425
361.073	39.82008
361.291	20.15584
361.509	-105.69527
361.728	51.61862
361.946	-7.37409
362.164	53.58504
362.382	16.22299
362.601	-17.20621
362.819	-17.20621
363.037	-87.99746
363.255	26.05511
363.473	-58.5011
363.691	136.17484
363.909	33.92081
364.128	-13.27336
364.346	83.0814
364.564	6.39088
364.782	-54.56826
365	177.46973
365.218	-11.30694
365.436	22.12227
365.654	-25.0719
365.872	-46.70256
366.09	43.75293
366.308	-68.33322
366.526	61.45074
366.743	-91.9303
366.961	20.15584
367.179	-44.73614
367.397	71.28286
367.615	22.12227
367.833	-19.17263
368.051	159.77192
368.268	106.67848
368.486	41.7865
368.704	-119.46023
368.922	-86.03103
369.14	35.88723
369.357	-44.73614
369.575	-66.3668
369.793	-91.9303
370.01	87.01425
370.228	-19.17263
370.446	12.29015
370.663	2.45803
370.881	-7.37409
371.099	49.6522
371.316	-3.44124
371.534	24.08869
371.751	16.22299
371.969	49.6522
372.186	35.88723
372.404	-11.30694
372.621	31.95438
372.839	-82.09819
373.056	106.67848
373.274	0.49161
373.491	18.18942
373.709	-21.13905
373.926	-15.23978
374.144	65.38359
374.361	-60.46753
374.578	-19.17263
374.796	-3.44124
375.013	136.17484
375.23	67.35001
375.448	138.14126
375.665	57.51789
375.882	16.22299
376.099	55.55147
376.317	26.05511
376.534	28.02154
376.751	28.02154
376.968	-1.47482
377.186	57.51789
377.403	8.3573
377.62	171.57046
377.837	45.71935
378.054	14.25657
378.271	28.02154
378.488	16.22299
378.705	53.58504
378.923	6.39088
379.14	-64.40037
379.357	37.85365
379.574	-113.56096
379.791	6.39088
380.008	69.31643
380.225	-64.40037
380.442	77.18213
380.659	14.25657
380.875	-52.60183
381.092	22.12227
381.309	-40.80329
381.526	-48.66898
381.743	-44.73614
381.96	71.28286
382.177	2.45803
382.394	100.77921
382.61	-84.06461
382.827	31.95438
383.044	-19.17263
383.261	-38.83687
383.477	6.39088
383.694	-74.23249
383.911	-54.56826
384.128	22.12227
384.344	59.48431
384.561	-40.80329
384.778	-182.38579
384.994	-3.44124
385.211	22.12227
385.428	53.58504
385.644	10.32372
385.861	108.64491
386.077	22.12227
386.294	-13.27336
386.51	-76.19892
386.727	90.94709
386.943	26.05511
387.16	26.05511
387.376	-89.96388
387.593	-34.90402
387.809	-46.70256
388.026	35.88723
388.242	-109.62812
388.459	22.12227
388.675	100.77921
388.891	61.45074
389.108	45.71935
389.324	4.42445
389.54	22.12227
389.757	100.77921
389.973	45.71935
390.189	-40.80329
390.405	-109.62812
390.622	-48.66898
390.838	-56.53468
391.054	14.25657
391.27	33.92081
391.487	-58.5011
391.703	6.39088
391.919	45.71935
392.135	10.32372
392.351	43.75293
392.567	-93.89673
392.783	-40.80329
393	18.18942
393.216	-54.56826
393.432	4.42445
393.648	-50.63541
393.864	-64.40037
394.08	-3.44124
394.296	-48.66898
394.512	-17.20621
394.728	8.3573
394.944	-80.13176
395.16	31.95438
395.375	14.25657
395.591	116.5106
395.807	4.42445
396.023	26.05511
396.239	-46.70256
396.455	-48.66898
396.671	167.63761
396.886	43.75293
397.102	28.02154
397.318	55.55147
397.534	57.51789
397.749	63.41716
397.965	230.56317
398.181	4.42445
398.397	-23.10548
398.612	-23.10548
398.828	-13.27336
399.044	-15.23978
399.259	37.85365
399.475	210.89893
399.691	45.71935
399.906	-23.10548
400.122	-11.30694
400.337	14.25657
400.553	53.58504
400.768	-21.13905
400.984	51.61862
401.199	-62.43395
401.415	-32.9376
401.63	104.71206
401.846	0.49161
402.061	47.68577
402.277	-3.44124
402.492	10.32372
402.708	-23.10548
402.923	35.88723
403.138	6.39088
403.354	55.55147
403.569	-3.44124
403.784	-36.87044
404	-46.70256
404.215	65.38359
404.43	-82.09819
404.645	47.68577
404.861	71.28286
405.076	-48.66898
405.291	-19.17263
405.506	-7.37409
405.722	-7.37409
405.937	-27.03832
406.152	-44.73614
406.367	8.3573
406.582	-72.26607
406.797	63.41716
407.012	-54.56826
407.227	-34.90402
407.442	29.98796
407.658	-40.80329
407.873	-68.33322
408.088	49.6522
408.303	69.31643
408.518	-115.52739
408.733	2.45803
408.947	8.3573
409.162	28.02154
409.377	-13.27336
409.592	-11.30694
409.807	51.61862
410.022	-95.86315
410.237	-13.27336
410.452	31.95438
410.667	45.71935
410.881	-152.88944
411.096	33.92081
411.311	12.29015
411.526	-105.69527
411.741	-95.86315
411.955	-3.44124
412.17	-86.03103
412.385	94.87994
412.599	-7.37409
412.814	18.18942
413.029	-48.66898
413.243	-48.66898
413.458	-40.80329
413.673	87.01425
413.887	12.29015
414.102	-119.46023
414.316	69.31643
414.531	49.6522
414.746	10.32372
414.96	51.61862
415.175	6.39088
415.389	-56.53468
415.604	-11.30694
415.818	-15.23978
416.032	4.42445
416.247	-48.66898
416.461	33.92081
416.676	-91.9303
416.89	26.05511
417.105	-62.43395
417.319	33.92081
417.533	16.22299
417.748	-78.16534
417.962	4.42445
418.176	112.57775
418.39	-7.37409
418.605	-23.10548
418.819	124.37629
419.033	51.61862
419.247	83.0814
419.462	2.45803
419.676	-70.29964
419.89	-76.19892
420.104	-5.40766
420.318	41.7865
420.532	-58.5011
420.747	-62.43395
420.961	-74.23249
421.175	-7.37409
421.389	-27.03832
421.603	-52.60183
421.817	-54.56826
422.031	-72.26607
422.245	-50.63541
422.459	29.98796
422.673	55.55147
422.887	-86.03103
423.101	6.39088
423.315	37.85365
423.529	18.18942
423.743	116.5106
423.956	73.24928
424.17	26.05511
424.384	57.51789
424.598	-15.23978
424.812	-1.47482
425.026	39.82008
425.239	-54.56826
425.453	55.55147
425.667	59.48431
425.881	10.32372
426.095	-60.46753
426.308	-23.10548
426.522	6.39088
426.736	39.82008
426.949	244.32813
427.163	31.95438
427.377	51.61862
427.59	155.83907
427.804	85.04782
428.017	35.88723
428.231	47.68577
428.445	-40.80329
428.658	65.38359
428.872	-135.19162
429.085	18.18942
429.299	4.42445
429.512	41.7865
429.726	-27.03832
429.939	-87.99746
430.153	-27.03832
430.366	33.92081
430.579	75.2157
430.793	-74.23249
431.006	-48.66898
431.22	-36.87044
431.433	20.15584
431.646	6.39088
431.86	189.26827
432.073	29.98796
432.286	-50.63541
432.499	-101.76242
432.713	-1.47482
432.926	51.61862
433.139	-32.9376
433.352	-42.76971
433.565	75.2157
433.779	18.18942
433.992	-66.3668
434.205	10.32372
434.418	-82.09819
434.631	83.0814
434.844	98.81279
435.057	-62.43395
435.271	-42.76971
435.484	88.98067
435.697	-115.52739
435.91	24.08869
436.123	92.91352
436.336	45.71935
436.549	-34.90402
436.762	94.87994
436.975	-27.03832
437.187	53.58504
437.4	45.71935
437.613	61.45074
437.826	-11.30694
438.039	59.48431
438.252	6.39088
438.465	41.7865
438.678	-48.66898
438.89	63.41716
439.103	47.68577
439.316	-84.06461
439.529	-54.56826
439.741	29.98796
439.954	45.71935
440.167	-58.5011
440.38	31.95438
440.592	96.84636
440.805	10.32372
441.018	10.32372
441.23	81.11497
441.443	0.49161
441.656	31.95438
441.868	67.35001
442.081	90.94709
442.293	106.67848
442.506	43.75293
442.718	-15.23978
442.931	-80.13176
443.143	28.02154
443.356	83.0814
443.568	-7.37409
443.781	94.87994
443.993	104.71206
444.206	37.85365
444.418	114.54418
444.63	-5.40766
444.843	53.58504
445.055	12.29015
445.268	-44.73614
445.48	-113.56096
445.692	-11.30694
445.904	69.31643
446.117	-46.70256
446.329	28.02154
446.541	63.41716
446.754	108.64491
446.966	-17.20621
447.178	-21.13905
447.39	-40.80329
447.602	98.81279
447.815	-13.27336
448.027	-56.53468
448.239	24.08869
448.451	-17.20621
448.663	43.75293
448.875	47.68577
449.087	73.24928
449.299	14.25657
449.511	45.71935
449.723	-56.53468
449.935	37.85365
450.147	79.14855
450.359	-60.46753
450.571	41.7865
450.783	-44.73614
450.995	69.31643
451.207	-15.23978
451.419	43.75293
451.631	157.8055
451.843	31.95438
452.055	61.45074
452.266	24.08869
452.478	-158.78871
452.69	-1.47482
452.902	-68.33322
453.114	-21.13905
453.325	-109.62812
453.537	-87.99746
453.749	2.45803
453.961	67.35001
454.172	28.02154
454.384	-36.87044
454.596	29.98796
454.807	-34.90402
455.019	73.24928
455.23	10.32372
455.442	-11.30694
455.654	-5.40766
455.865	-11.30694
456.077	39.82008
456.288	102.74563
456.5	88.98067
456.711	12.29015
456.923	-36.87044
457.134	39.82008
457.346	-48.66898
457.557	-3.44124
457.769	33.92081
457.98	149.9398
458.192	49.6522
458.403	-9.34051
458.614	45.71935
458.826	51.61862
459.037	69.31643
459.248	0.49161
459.46	-21.13905
459.671	85.04782
459.882	2.45803
460.094	18.18942
460.305	-40.80329
460.516	51.61862
460.727	-13.27336
460.938	63.41716
461.15	106.67848
461.361	128.30914
461.572	-7.37409
461.783	24.08869
461.994	83.0814
462.205	114.54418
462.416	51.61862
462.627	-109.62812
462.839	-7.37409
463.05	33.92081
463.261	-50.63541
463.472	-93.89673
463.683	-9.34051
463.894	67.35001
464.105	4.42445
464.316	-87.99746
464.526	153.87265
464.737	-17.20621
464.948	53.58504
465.159	79.14855
465.37	-17.20621
465.581	-15.23978
465.792	-64.40037
466.003	29.98796
466.213	-87.99746
466.424	53.58504
466.635	-62.43395
466.846	85.04782
467.057	37.85365
467.267	92.91352
467.478	29.98796
467.689	43.75293
467.899	22.12227
468.11	-40.80329
468.321	-107.66169
468.531	-103.72885
468.742	-64.40037
468.953	29.98796
469.163	18.18942
469.374	4.42445
469.584	29.98796
469.795	2.45803
470.005	-32.9376
470.216	4.42445
470.426	-93.89673
470.637	22.12227
470.847	39.82008
471.058	-64.40037
471.268	94.87994
471.479	-48.66898
471.689	-1.47482
471.9	4.42445
472.11	-111.59454
472.32	24.08869
472.531	37.85365
472.741	29.98796
472.951	-89.96388
473.162	-48.66898
473.372	69.31643
473.582	-29.00475
473.792	2.45803
474.003	71.28286
474.213	22.12227
474.423	-64.40037
474.633	31.95438
474.843	-23.10548
475.054	20.15584
475.264	-64.40037
475.474	-25.0719
475.684	90.94709
475.894	28.02154
476.104	28.02154
476.314	-111.59454
476.524	-95.86315
476.734	53.58504
476.944	47.68577
477.154	-11.30694
477.364	-32.9376
477.574	-91.9303
477.784	6.39088
477.994	-72.26607
478.204	20.15584
478.414	-60.46753
478.624	-97.82958
478.834	-91.9303
479.044	81.11497
479.254	-56.53468
479.463	-11.30694
479.673	39.82008
479.883	-54.56826
480.093	12.29015
480.303	57.51789
480.512	35.88723
480.722	71.28286
480.932	79.14855
481.142	8.3573
481.351	16.22299
481.561	43.75293
481.771	0.49161
481.98	45.71935
482.19	-74.23249
482.399	0.49161
482.609	45.71935
482.819	-62.43395
483.028	-21.13905
483.238	-19.17263
483.447	55.55147
483.657	-25.0719
483.866	20.15584
484.076	16.22299
484.285	-11.30694
484.495	8.3573
484.704	6.39088
484.914	79.14855
485.123	29.98796
485.332	14.25657
485.542	0.49161
485.751	45.71935
485.961	61.45074
486.17	-25.0719
486.379	-9.34051
486.589	-15.23978
486.798	49.6522
487.007	77.18213
487.216	-48.66898
487.426	100.77921
487.635	71.28286
487.844	-38.83687
488.053	14.25657
488.262	96.84636
488.472	124.37629
488.681	2.45803
488.89	51.61862
489.099	-64.40037
489.308	8.3573
489.517	-40.80329
489.726	67.35001
489.935	69.31643
490.144	26.05511
490.353	-56.53468
490.562	37.85365
490.771	43.75293
490.98	77.18213
491.189	-7.37409
491.398	-13.27336
491.607	45.71935
491.816	193.20112
492.025	-29.00475
492.234	142.07411
492.443	-74.23249
492.652	61.45074
492.86	55.55147
493.069	-86.03103
493.278	81.11497
493.487	-58.5011
493.696	-9.34051
493.904	94.87994
494.113	55.55147
494.322	31.95438
494.53	43.75293
494.739	-29.00475
494.948	12.29015
495.156	-25.0719
495.365	83.0814
495.574	-72.26607
495.782	83.0814
495.991	142.07411
496.2	-25.0719
496.408	-25.0719
496.617	-95.86315
496.825	102.74563
497.034	100.77921
497.242	-52.60183
497.451	96.84636
497.659	-56.53468
497.868	-115.52739
498.076	-95.86315
498.285	20.15584
498.493	-86.03103
498.701	-52.60183
498.91	51.61862
499.118	-36.87044
499.326	-50.63541
499.535	85.04782
499.743	59.48431
499.951	-15.23978
500.16	16.22299
500.368	51.61862
500.576	-32.9376
500.784	-25.0719
500.993	47.68577
501.201	8.3573
501.409	28.02154
501.617	53.58504
501.825	33.92081
502.034	55.55147
502.242	-72.26607
502.45	-103.72885
502.658	-107.66169
502.866	16.22299
503.074	-50.63541
503.282	151.90622
503.49	-17.20621
503.698	28.02154
503.906	-172.55367
504.114	24.08869
504.322	0.49161
504.53	-17.20621
504.738	-50.63541
504.946	-5.40766
505.154	-223.68069
505.362	-54.56826
505.57	-95.86315
505.777	-50.63541
505.985	12.29015
506.193	-19.17263
506.401	39.82008
506.609	2.45803
506.816	29.98796
507.024	-21.13905
507.232	43.75293
507.44	-105.69527
507.647	31.95438
507.855	6.39088
508.063	16.22299
508.271	-87.99746
508.478	8.3573
508.686	-30.97117
508.893	14.25657
509.101	-42.76971
509.309	61.45074
509.516	-78.16534
509.724	-30.97117
509.931	-25.0719
510.139	41.7865
510.346	10.32372
510.554	10.32372
510.761	-23.10548
510.969	-84.06461
511.176	-30.97117
511.384	4.42445
511.591	-11.30694
511.799	8.3573
512.006	-11.30694
512.213	20.15584
512.421	71.28286
512.628	-32.9376
512.835	-164.68798
513.043	59.48431
513.25	140.10768
513.457	45.71935
513.664	65.38359
513.872	35.88723
514.079	51.61862
514.286	96.84636
514.493	6.39088
514.701	-58.5011
514.908	-15.23978
515.115	10.32372
515.322	138.14126
515.529	116.5106
515.736	12.29015
515.943	-25.0719
516.15	16.22299
516.357	-111.59454
516.564	37.85365
516.772	29.98796
516.979	49.6522
517.186	-15.23978
517.392	128.30914
517.599	-13.27336
517.806	22.12227
518.013	-19.17263
518.22	63.41716
518.427	35.88723
518.634	-15.23978
518.841	-25.0719
519.048	-113.56096
519.255	-44.73614
519.461	-19.17263
519.668	18.18942
519.875	104.71206
520.082	20.15584
520.289	-105.69527
520.495	-15.23978
520.702	-58.5011
520.909	-58.5011
521.115	-143.05732
521.322	0.49161
521.529	-107.66169
521.735	-78.16534
521.942	18.18942
522.149	-72.26607
522.355	35.88723
522.562	-62.43395
522.768	4.42445
522.975	-46.70256
523.181	26.05511
523.388	8.3573
523.595	-32.9376
523.801	8.3573
524.007	43.75293
524.214	-3.44124
524.42	-64.40037
524.627	26.05511
524.833	-50.63541
525.04	71.28286
525.246	18.18942
525.452	-21.13905
525.659	-66.3668
525.865	92.91352
526.071	67.35001
526.278	28.02154
526.484	35.88723
526.69	10.32372
526.896	29.98796
527.103	35.88723
527.309	16.22299
527.515	-56.53468
527.721	-82.09819
527.927	10.32372
528.134	94.87994
528.34	35.88723
528.546	2.45803
528.752	90.94709
528.958	-117.49381
529.164	138.14126
529.37	242.36171
529.576	496.03036
529.782	635.64644
529.988	775.26251
530.194	733.96762
530.4	560.92234
530.606	397.70918
530.812	301.35442
531.018	275.79091
531.224	47.68577
531.43	71.28286
531.636	88.98067
531.842	12.29015
532.048	203.03324
532.253	-119.46023
532.459	4.42445
532.665	83.0814
532.871	33.92081
533.077	-25.0719
533.282	-76.19892
533.488	-36.87044
533.694	-46.70256
533.9	-50.63541
534.105	140.10768
534.311	-3.44124
534.517	35.88723
534.722	106.67848
534.928	57.51789
535.133	26.05511
535.339	-48.66898
535.545	35.88723
535.75	69.31643
535.956	0.49161
536.161	-38.83687
536.367	29.98796
536.572	142.07411
536.778	65.38359
536.983	6.39088
537.189	28.02154
537.394	-76.19892
537.6	67.35001
537.805	142.07411
538.01	-25.0719
538.216	-70.29964
538.421	126.34272
538.627	10.32372
538.832	128.30914
539.037	10.32372
539.242	98.81279
539.448	39.82008
539.653	20.15584
539.858	-7.37409
540.064	47.68577
540.269	41.7865
540.474	-27.03832
540.679	92.91352
540.884	22.12227
541.089	-13.27336
541.295	-7.37409
541.5	-1.47482
541.705	-1.47482
541.91	100.77921
542.115	90.94709
542.32	57.51789
542.525	57.51789
542.73	33.92081
542.935	41.7865
543.14	-21.13905
543.345	106.67848
543.55	8.3573
543.755	134.20841
543.96	4.42445
544.165	-19.17263
544.37	-1.47482
544.575	88.98067
544.78	47.68577
544.984	108.64491
545.189	51.61862
545.394	-21.13905
545.599	35.88723
545.804	-19.17263
546.008	124.37629
546.213	18.18942
546.418	157.8055
546.623	134.20841
546.827	33.92081
547.032	10.32372
547.237	157.8055
547.441	29.98796
547.646	-111.59454
547.851	79.14855
548.055	63.41716
548.26	102.74563
548.464	22.12227
548.669	26.05511
548.874	138.14126
549.078	106.67848
549.283	-48.66898
549.487	29.98796
549.692	35.88723
549.896	-27.03832
550.101	0.49161
550.305	61.45074
550.509	96.84636
550.714	31.95438
550.918	-25.0719
551.123	51.61862
551.327	69.31643
551.531	98.81279
551.736	49.6522
551.94	88.98067
552.144	33.92081
552.349	-56.53468
552.553	28.02154
552.757	-27.03832
552.961	39.82008
553.165	-74.23249
553.37	-84.06461
553.574	-34.90402
553.778	33.92081
553.982	98.81279
554.186	179.43616
554.39	63.41716
554.595	-54.56826
554.799	35.88723
555.003	122.40987
555.207	96.84636
555.411	155.83907
555.615	43.75293
555.819	20.15584
556.023	-7.37409
556.227	90.94709
556.431	96.84636
556.635	67.35001
556.839	65.38359
557.043	79.14855
557.246	-3.44124
557.45	79.14855
557.654	65.38359
557.858	55.55147
558.062	-48.66898
558.266	-50.63541
558.469	63.41716
558.673	35.88723
558.877	-46.70256
559.081	85.04782
559.285	59.48431
559.488	-29.00475
559.692	134.20841
559.896	79.14855
560.099	6.39088
560.303	-34.90402
560.507	75.2157
560.71	116.5106
560.914	20.15584
561.117	88.98067
561.321	43.75293
561.525	94.87994
561.728	57.51789
561.932	16.22299
562.135	-54.56826
562.339	29.98796
562.542	67.35001
562.746	35.88723
562.949	41.7865
563.152	71.28286
563.356	108.64491
563.559	35.88723
563.763	108.64491
563.966	106.67848
564.169	161.73834
564.373	179.43616
564.576	-29.00475
564.779	33.92081
564.983	85.04782
565.186	163.70477
565.389	45.71935
565.592	126.34272
565.796	28.02154
565.999	22.12227
566.202	69.31643
566.405	132.24199
566.608	-1.47482
566.812	73.24928
567.015	26.05511
567.218	151.90622
567.421	73.24928
567.624	-1.47482
567.827	-7.37409
568.03	169.60404
568.233	63.41716
568.436	24.08869
568.639	14.25657
568.842	22.12227
569.045	0.49161
569.248	31.95438
569.451	22.12227
569.654	411.47414
569.857	993.53553
570.06	1546.10057
570.263	2301.20724
570.465	2586.33867
570.668	2301.20724
570.871	1502.83925
571.074	1131.18519
571.277	466.534
571.479	372.14567
571.682	222.69748
571.885	203.03324
572.088	49.6522
572.29	114.54418
572.493	149.9398
572.696	20.15584
572.898	155.83907
573.101	35.88723
573.304	35.88723
573.506	81.11497
573.709	149.9398
573.911	85.04782
574.114	114.54418
574.317	75.2157
574.519	4.42445
574.722	110.61133
574.924	104.71206
575.127	14.25657
575.329	53.58504
575.532	100.77921
575.734	169.60404
575.936	79.14855
576.139	199.10039
576.341	96.84636
576.544	85.04782
576.746	189.26827
576.948	31.95438
577.151	114.54418
577.353	208.93251
577.555	96.84636
577.757	108.64491
577.96	65.38359
578.162	22.12227
578.364	-7.37409
578.566	51.61862
578.769	96.84636
578.971	126.34272
579.173	183.369
579.375	146.00695
579.577	106.67848
579.779	177.46973
579.981	41.7865
580.184	106.67848
580.386	98.81279
580.588	136.17484
580.79	28.02154
580.992	134.20841
581.194	157.8055
581.396	-30.97117
581.598	98.81279
581.8	206.96609
582.002	130.27556
582.203	114.54418
582.405	35.88723
582.607	175.50331
582.809	71.28286
583.011	114.54418
583.213	96.84636
583.415	167.63761
583.617	16.22299
583.818	24.08869
584.02	53.58504
584.222	118.47702
584.424	59.48431
584.625	57.51789
584.827	61.45074
585.029	100.77921
585.23	128.30914
585.432	85.04782
585.634	39.82008
585.835	120.44345
586.037	33.92081
586.239	114.54418
586.44	29.98796
586.642	-9.34051
586.843	94.87994
587.045	4.42445
587.246	57.51789
587.448	69.31643
587.649	124.37629
587.851	181.40258
588.052	37.85365
588.254	134.20841
588.455	18.18942
588.657	61.45074
588.858	29.98796
589.059	10.32372
589.261	118.47702
589.462	59.48431
589.663	77.18213
589.865	69.31643
590.066	165.67119
590.267	22.12227
590.468	49.6522
590.67	37.85365
590.871	33.92081
591.072	136.17484
591.273	73.24928
591.475	118.47702
591.676	-13.27336
591.877	71.28286
592.078	122.40987
592.279	12.29015
592.48	53.58504
592.681	71.28286
592.882	75.2157
593.083	147.97338
593.284	35.88723
593.485	116.5106
593.686	118.47702
593.887	110.61133
594.088	33.92081
594.289	51.61862
594.49	6.39088
594.691	61.45074
594.892	57.51789
595.093	146.00695
595.294	81.11497
595.495	124.37629
595.696	57.51789
595.896	-23.10548
596.097	29.98796
596.298	43.75293
596.499	53.58504
596.7	55.55147
596.9	114.54418
597.101	49.6522
597.302	61.45074
597.502	77.18213
597.703	147.97338
597.904	-97.82958
598.104	67.35001
598.305	2.45803
598.506	49.6522
598.706	132.24199
598.907	4.42445
599.107	65.38359
599.308	-133.2252
599.508	39.82008
599.709	41.7865
599.909	159.77192
600.11	35.88723
600.31	-74.23249
600.511	108.64491
600.711	185.33543
600.912	98.81279
601.112	142.07411
601.313	104.71206
601.513	-21.13905
601.713	102.74563
601.914	114.54418
602.114	88.98067
602.314	83.0814
602.515	-3.44124
602.715	81.11497
602.915	24.08869
603.115	55.55147
603.316	110.61133
603.516	77.18213
603.716	43.75293
603.916	22.12227
604.116	124.37629
604.316	79.14855
604.517	49.6522
604.717	98.81279
604.917	120.44345
605.117	-9.34051
605.317	18.18942
605.517	114.54418
605.717	12.29015
605.917	146.00695
606.117	116.5106
606.317	138.14126
606.517	45.71935
606.717	96.84636
606.917	-76.19892
607.117	163.70477
607.317	65.38359
607.516	29.98796
607.716	228.59675
607.916	90.94709
608.116	65.38359
608.316	75.2157
608.516	69.31643
608.715	199.10039
608.915	175.50331
609.115	177.46973
609.315	106.67848
609.514	65.38359
609.714	43.75293
609.914	39.82008
610.114	153.87265
610.313	83.0814
610.513	-3.44124
610.712	108.64491
610.912	-66.3668
611.112	49.6522
611.311	146.00695
611.511	203.03324
611.71	22.12227
611.91	73.24928
612.109	110.61133
612.309	-30.97117
612.508	159.77192
612.708	73.24928
612.907	24.08869
613.107	77.18213
613.306	177.46973
613.505	71.28286
613.705	110.61133
613.904	69.31643
614.104	65.38359
614.303	14.25657
614.502	0.49161
614.702	104.71206
614.901	-5.40766
615.1	35.88723
615.299	10.32372
615.499	39.82008
615.698	67.35001
615.897	161.73834
616.096	128.30914
616.295	110.61133
616.494	8.3573
616.694	94.87994
616.893	6.39088
617.092	-3.44124
617.291	120.44345
617.49	10.32372
617.689	24.08869
617.888	159.77192
618.087	0.49161
618.286	16.22299
618.485	31.95438
618.684	98.81279
618.883	-11.30694
619.082	-40.80329
619.281	65.38359
619.48	73.24928
619.679	29.98796
619.878	90.94709
620.076	57.51789
620.275	-34.90402
620.474	90.94709
620.673	-36.87044
620.872	61.45074
621.07	75.2157
621.269	28.02154
621.468	33.92081
621.667	39.82008
621.865	96.84636
622.064	-9.34051
622.263	100.77921
622.461	-62.43395
622.66	2.45803
622.859	8.3573
623.057	77.18213
623.256	18.18942
623.455	31.95438
623.653	122.40987
623.852	181.40258
624.05	116.5106
624.249	-66.3668
624.447	226.63032
624.646	114.54418
624.844	155.83907
625.043	6.39088
625.241	-46.70256
625.439	108.64491
625.638	94.87994
625.836	104.71206
626.035	140.10768
626.233	24.08869
626.431	-13.27336
626.63	24.08869
626.828	75.2157
627.026	88.98067
627.225	94.87994
627.423	138.14126
627.621	-72.26607
627.819	183.369
628.017	55.55147
628.216	83.0814
628.414	142.07411
628.612	61.45074
628.81	114.54418
629.008	-19.17263
629.206	28.02154
629.404	6.39088
629.602	14.25657
629.801	77.18213
629.999	43.75293
630.197	0.49161
630.395	29.98796
630.593	163.70477
630.791	22.12227
630.989	28.02154
631.187	96.84636
631.384	-72.26607
631.582	136.17484
631.78	96.84636
631.978	26.05511
632.176	102.74563
632.374	155.83907
632.572	-54.56826
632.769	87.01425
632.967	102.74563
633.165	18.18942
633.363	18.18942
633.561	20.15584
633.758	20.15584
633.956	39.82008
634.154	12.29015
634.351	43.75293
634.549	177.46973
634.747	45.71935
634.944	106.67848
635.142	8.3573
635.34	-54.56826
635.537	57.51789
635.735	6.39088
635.932	-3.44124
636.13	53.58504
636.327	18.18942
636.525	39.82008
636.722	88.98067
636.92	149.9398
637.117	136.17484
637.315	43.75293
637.512	-164.68798
637.709	51.61862
637.907	22.12227
638.104	75.2157
638.302	20.15584
638.499	155.83907
638.696	-13.27336
638.894	57.51789
639.091	47.68577
639.288	6.39088
639.485	-17.20621
639.683	-19.17263
639.88	39.82008
640.077	43.75293
640.274	18.18942
640.471	96.84636
640.669	73.24928
640.866	14.25657
641.063	73.24928
641.26	-137.15805
641.457	0.49161
641.654	16.22299
641.851	-32.9376
642.048	-50.63541
642.245	16.22299
642.442	-29.00475
642.639	14.25657
642.836	-25.0719
643.033	83.0814
643.23	47.68577
643.427	24.08869
643.624	26.05511
643.821	41.7865
644.018	26.05511
644.215	-7.37409
644.411	39.82008
644.608	47.68577
644.805	39.82008
645.002	201.06682
645.199	26.05511
645.395	-1.47482
645.592	59.48431
645.789	169.60404
645.986	16.22299
646.182	-3.44124
646.379	26.05511
646.576	96.84636
646.772	136.17484
646.969	-11.30694
647.166	35.88723
647.362	-7.37409
647.559	-38.83687
647.755	51.61862
647.952	28.02154
648.148	102.74563
648.345	83.0814
648.541	-15.23978
648.738	-23.10548
648.934	114.54418
649.131	159.77192
649.327	33.92081
649.524	79.14855
649.72	47.68577
649.916	57.51789
650.113	-11.30694
650.309	118.47702
650.506	73.24928
650.702	24.08869
650.898	47.68577
651.094	63.41716
651.291	-70.29964
651.487	83.0814
651.683	98.81279
651.879	-72.26607
652.076	-32.9376
652.272	53.58504
652.468	-68.33322
652.664	65.38359
652.86	29.98796
653.056	-21.13905
653.253	37.85365
653.449	-23.10548
653.645	169.60404
653.841	29.98796
654.037	31.95438
654.233	85.04782
654.429	-107.66169
654.625	69.31643
654.821	85.04782
655.017	-17.20621
655.213	120.44345
655.409	-46.70256
655.605	57.51789
655.8	108.64491
655.996	163.70477
656.192	28.02154
656.388	224.6639
656.584	16.22299
656.78	88.98067
656.975	57.51789
657.171	100.77921
657.367	179.43616
657.563	33.92081
657.758	35.88723
657.954	106.67848
658.15	61.45074
658.345	14.25657
658.541	157.8055
658.737	26.05511
658.932	71.28286
659.128	14.25657
659.324	-5.40766
659.519	128.30914
659.715	-7.37409
659.91	-84.06461
660.106	18.18942
660.301	20.15584
660.497	130.27556
660.692	55.55147
660.888	-66.3668
661.083	0.49161
661.279	-19.17263
661.474	-109.62812
661.669	41.7865
661.865	14.25657
662.06	169.60404
662.256	90.94709
662.451	81.11497
662.646	12.29015
662.841	-5.40766
663.037	26.05511
663.232	16.22299
663.427	114.54418
663.623	14.25657
663.818	47.68577
664.013	106.67848
664.208	69.31643
664.403	163.70477
664.598	140.10768
664.794	94.87994
664.989	67.35001
665.184	73.24928
665.379	37.85365
665.574	88.98067
665.769	-17.20621
665.964	51.61862
666.159	106.67848
666.354	-95.86315
666.549	0.49161
666.744	-5.40766
666.939	29.98796
667.134	87.01425
667.329	14.25657
667.524	45.71935
667.719	39.82008
667.913	-5.40766
668.108	-76.19892
668.303	49.6522
668.498	61.45074
668.693	146.00695
668.887	126.34272
669.082	43.75293
669.277	-7.37409
669.472	49.6522
669.666	138.14126
669.861	-15.23978
670.056	49.6522
670.251	31.95438
670.445	-7.37409
670.64	69.31643
670.834	77.18213
671.029	63.41716
671.224	22.12227
671.418	22.12227
671.613	2.45803
671.807	-32.9376
672.002	128.30914
672.196	26.05511
672.391	112.57775
672.585	-54.56826
672.78	41.7865
672.974	-19.17263
673.169	-164.68798
673.363	-148.95659
673.557	53.58504
673.752	4.42445
673.946	61.45074
674.14	2.45803
674.335	45.71935
674.529	61.45074
674.723	140.10768
674.918	-21.13905
675.112	75.2157
675.306	45.71935
675.5	29.98796
675.695	61.45074
675.889	43.75293
676.083	-95.86315
676.277	41.7865
676.471	45.71935
676.665	49.6522
676.859	63.41716
677.053	53.58504
677.248	24.08869
677.442	-40.80329
677.636	16.22299
677.83	102.74563
678.024	69.31643
678.218	16.22299
678.412	104.71206
678.606	-3.44124
678.8	-17.20621
678.993	-52.60183
679.187	-13.27336
679.381	47.68577
679.575	-64.40037
679.769	-21.13905
679.963	24.08869
680.157	28.02154
680.35	6.39088
680.544	120.44345
680.738	35.88723
680.932	57.51789
681.125	31.95438
681.319	100.77921
681.513	-62.43395
681.707	94.87994
681.9	-113.56096
682.094	2.45803
682.288	-64.40037
682.481	81.11497
682.675	28.02154
682.868	39.82008
683.062	51.61862
683.256	77.18213
683.449	63.41716
683.643	-145.02374
683.836	81.11497
684.03	45.71935
684.223	29.98796
684.416	67.35001
684.61	-13.27336
684.803	12.29015
684.997	14.25657
685.19	81.11497
685.384	20.15584
685.577	39.82008
685.77	79.14855
685.964	33.92081
686.157	39.82008
686.35	-78.16534
686.543	28.02154
686.737	-82.09819
686.93	98.81279
687.123	51.61862
687.316	51.61862
687.51	-15.23978
687.703	41.7865
687.896	-40.80329
688.089	-5.40766
688.282	90.94709
688.475	59.48431
688.668	-89.96388
688.861	88.98067
689.054	-58.5011
689.247	130.27556
689.441	14.25657
689.634	-40.80329
689.827	79.14855
690.019	75.2157
690.212	90.94709
690.405	108.64491
690.598	69.31643
690.791	-34.90402
690.984	-21.13905
691.177	-52.60183
691.37	96.84636
691.563	-29.00475
691.755	144.04053
691.948	177.46973
692.141	-42.76971
692.334	35.88723
692.527	106.67848
692.719	59.48431
692.912	-23.10548
693.105	-34.90402
693.297	26.05511
693.49	49.6522
693.683	-44.73614
693.875	59.48431
694.068	-48.66898
694.261	67.35001
694.453	12.29015
694.646	31.95438
694.838	98.81279
695.031	45.71935
695.223	-52.60183
695.416	26.05511
695.608	12.29015
695.801	53.58504
695.993	45.71935
696.186	-27.03832
696.378	-89.96388
696.571	-70.29964
696.763	-5.40766
696.955	-29.00475
697.148	-36.87044
697.34	116.5106
697.532	-89.96388
697.725	71.28286
697.917	-3.44124
698.109	35.88723
698.302	-52.60183
698.494	35.88723
698.686	26.05511
698.878	-34.90402
699.07	-32.9376
699.263	-3.44124
699.455	-113.56096
699.647	-38.83687
699.839	35.88723
700.031	-76.19892
700.223	73.24928
700.415	2.45803
700.607	31.95438
700.799	-30.97117
700.991	12.29015
701.183	35.88723
701.375	-19.17263
701.567	-76.19892
701.759	43.75293
701.951	-34.90402
702.143	-27.03832
702.335	-5.40766
702.527	67.35001
702.719	45.71935
702.911	-3.44124
703.102	-54.56826
703.294	-89.96388
703.486	51.61862
703.678	-36.87044
703.87	-23.10548
704.061	49.6522
704.253	12.29015
704.445	177.46973
704.637	35.88723
704.828	-23.10548
705.02	28.02154
705.212	98.81279
705.403	-123.39308
705.595	57.51789
705.786	-34.90402
705.978	57.51789
706.17	-5.40766
706.361	35.88723
706.553	59.48431
706.744	61.45074
706.936	75.2157
707.127	98.81279
707.319	10.32372
707.51	59.48431
707.702	124.37629
707.893	87.01425
708.084	-25.0719
708.276	83.0814
708.467	67.35001
708.658	65.38359
708.85	35.88723
709.041	77.18213
709.232	-9.34051
709.424	53.58504
709.615	59.48431
709.806	-54.56826
709.997	29.98796
710.189	22.12227
710.38	37.85365
710.571	-135.19162
710.762	83.0814
710.953	-123.39308
711.145	-44.73614
711.336	65.38359
711.527	-29.00475
711.718	-48.66898
711.909	146.00695
712.1	177.46973
712.291	31.95438
712.482	-89.96388
712.673	136.17484
712.864	33.92081
713.055	57.51789
713.246	94.87994
713.437	41.7865
713.628	12.29015
713.819	24.08869
714.009	220.73105
714.2	6.39088
714.391	16.22299
714.582	98.81279
714.773	-1.47482
714.964	87.01425
715.154	104.71206
715.345	26.05511
715.536	-66.3668
715.727	-32.9376
715.917	104.71206
716.108	-89.96388
716.299	-62.43395
716.489	94.87994
716.68	53.58504
716.871	-30.97117
717.061	110.61133
717.252	146.00695
717.442	-3.44124
717.633	-1.47482
717.824	-19.17263
718.014	53.58504
718.205	35.88723
718.395	-58.5011
718.586	-1.47482
718.776	37.85365
718.967	100.77921
719.157	-17.20621
719.347	31.95438
719.538	-13.27336
719.728	41.7865
719.918	81.11497
720.109	155.83907
720.299	171.57046
720.489	-50.63541
720.68	71.28286
720.87	35.88723
721.06	85.04782
721.251	-5.40766
721.441	28.02154
721.631	85.04782
721.821	161.73834
722.011	10.32372
722.201	-82.09819
722.392	134.20841
722.582	-13.27336
722.772	61.45074
722.962	0.49161
723.152	20.15584
723.342	61.45074
723.532	-66.3668
723.722	57.51789
723.912	-52.60183
724.102	-23.10548
724.292	-29.00475
724.482	18.18942
724.672	43.75293
724.862	39.82008
725.052	-11.30694
725.242	35.88723
725.432	63.41716
725.621	-17.20621
725.811	-17.20621
726.001	-27.03832
726.191	-50.63541
726.381	47.68577
726.57	14.25657
726.76	22.12227
726.95	-34.90402
727.14	92.91352
727.329	51.61862
727.519	53.58504
727.709	92.91352
727.898	-19.17263
728.088	151.90622
728.278	41.7865
728.467	85.04782
728.657	45.71935
728.846	88.98067
729.036	63.41716
729.225	87.01425
729.415	33.92081
729.605	73.24928
729.794	43.75293
729.983	94.87994
730.173	163.70477
730.362	161.73834
730.552	98.81279
730.741	181.40258
730.931	130.27556
731.12	281.69018
731.309	140.10768
731.499	201.06682
731.688	319.05223
731.877	140.10768
732.066	163.70477
732.256	104.71206
732.445	206.96609
732.634	122.40987
732.823	-21.13905
733.013	108.64491
733.202	157.8055
733.391	165.67119
733.58	61.45074
733.769	134.20841
733.958	33.92081
734.147	63.41716
734.337	-5.40766
734.526	41.7865
734.715	53.58504
734.904	185.33543
735.093	108.64491
735.282	39.82008
735.471	67.35001
735.66	132.24199
735.849	126.34272
736.037	140.10768
736.226	90.94709
736.415	16.22299
736.604	73.24928
736.793	161.73834
736.982	61.45074
737.171	65.38359
737.359	26.05511
737.548	67.35001
737.737	69.31643
737.926	191.2347
738.115	4.42445
738.303	98.81279
738.492	153.87265
738.681	124.37629
738.869	130.27556
739.058	94.87994
739.247	159.77192
739.435	114.54418
739.624	226.63032
739.812	100.77921
740.001	187.30185
740.19	240.39529
740.378	169.60404
740.567	222.69748
740.755	206.96609
740.944	163.70477
741.132	283.65661
741.321	203.03324
741.509	197.13397
741.697	287.58945
741.886	262.02595
742.074	195.16754
742.263	250.22741
742.451	79.14855
742.639	138.14126
742.828	165.67119
743.016	321.01866
743.204	246.29456
743.392	285.62303
743.581	395.74275
743.769	322.98508
743.957	442.93692
744.145	311.18654
744.333	421.30626
744.522	381.97779
744.71	246.29456
744.898	551.09022
745.086	437.03765
745.274	409.50772
745.462	419.33984
745.65	354.44786
745.838	450.80261
746.026	411.47414
746.214	311.18654
746.402	397.70918
746.59	374.11209
746.778	126.34272
746.966	425.23911
747.154	252.19383
747.342	275.79091
747.53	216.7982
747.718	317.08581
747.906	350.51501
748.093	328.88435
748.281	216.7982
748.469	293.48873
748.657	177.46973
748.845	130.27556
749.032	175.50331
749.22	250.22741
749.408	165.67119
749.596	275.79091
749.783	65.38359
749.971	240.39529
750.159	218.76463
750.346	195.16754
750.534	189.26827
750.721	193.20112
750.909	151.90622
751.097	100.77921
751.284	112.57775
751.472	104.71206
751.659	144.04053
751.847	87.01425
752.034	61.45074
752.222	142.07411
752.409	-11.30694
752.597	87.01425
752.784	134.20841
752.971	14.25657
753.159	61.45074
753.346	208.93251
753.533	77.18213
753.721	114.54418
753.908	151.90622
754.095	-17.20621
754.283	94.87994
754.47	10.32372
754.657	69.31643
754.844	90.94709
755.032	26.05511
755.219	153.87265
755.406	149.9398
755.593	69.31643
755.78	2.45803
755.967	130.27556
756.155	88.98067
756.342	43.75293
756.529	124.37629
756.716	-19.17263
756.903	-21.13905
757.09	59.48431
757.277	71.28286
757.464	61.45074
757.651	14.25657
757.838	138.14126
758.025	79.14855
758.212	163.70477
758.399	57.51789
758.585	6.39088
758.772	69.31643
758.959	167.63761
759.146	92.91352
759.333	87.01425
759.52	57.51789
759.706	10.32372
759.893	193.20112
760.08	104.71206
760.267	167.63761
760.453	106.67848
760.64	102.74563
760.827	102.74563
761.013	106.67848
761.2	-7.37409
761.387	132.24199
761.573	26.05511
761.76	142.07411
761.946	61.45074
762.133	122.40987
762.32	45.71935
762.506	55.55147
762.693	51.61862
762.879	6.39088
763.066	77.18213
763.252	85.04782
763.439	0.49161
763.625	69.31643
763.811	65.38359
763.998	-36.87044
764.184	14.25657
764.371	100.77921
764.557	65.38359
764.743	-19.17263
764.929	102.74563
765.116	140.10768
765.302	18.18942
765.488	75.2157
765.675	126.34272
765.861	14.25657
766.047	100.77921
766.233	47.68577
766.419	-58.5011
766.605	75.2157
766.792	77.18213
766.978	100.77921
767.164	126.34272
767.35	-70.29964
767.536	8.3573
767.722	140.10768
767.908	18.18942
768.094	130.27556
768.28	77.18213
768.466	49.6522
768.652	92.91352
768.838	59.48431
769.024	83.0814
769.21	41.7865
769.396	43.75293
769.582	65.38359
769.767	47.68577
769.953	81.11497
770.139	114.54418
770.325	29.98796
770.511	-19.17263
770.697	20.15584
770.882	47.68577
771.068	-7.37409
771.254	108.64491
771.44	24.08869
771.625	28.02154
771.811	-15.23978
771.997	-78.16534
772.182	33.92081
772.368	-9.34051
772.553	29.98796
772.739	16.22299
772.925	-19.17263
773.11	43.75293
773.296	-5.40766
773.481	33.92081
773.667	110.61133
773.852	110.61133
774.038	-105.69527
774.223	126.34272
774.409	47.68577
774.594	35.88723
774.779	-9.34051
774.965	71.28286
775.15	69.31643
775.335	8.3573
775.521	175.50331
775.706	65.38359
775.891	106.67848
776.077	81.11497
776.262	39.82008
776.447	71.28286
776.632	87.01425
776.818	75.2157
777.003	161.73834
777.188	20.15584
777.373	106.67848
777.558	35.88723
777.743	116.5106
777.929	67.35001
778.114	146.00695
778.299	128.30914
778.484	120.44345
778.669	104.71206
778.854	87.01425
779.039	69.31643
779.224	260.05952
779.409	149.9398
779.594	31.95438
779.779	136.17484
779.964	61.45074
780.149	124.37629
780.333	146.00695
780.518	195.16754
780.703	197.13397
780.888	175.50331
781.073	147.97338
781.258	203.03324
781.442	195.16754
781.627	246.29456
781.812	149.9398
781.997	214.83178
782.181	140.10768
782.366	309.22011
782.551	263.99237
782.735	342.64932
782.92	252.19383
783.105	277.75734
783.289	228.59675
783.474	324.9515
783.658	322.98508
783.843	488.16466
784.028	271.85807
784.212	338.71647
784.397	476.36612
784.581	376.07852
784.766	456.70189
784.95	346.58216
785.134	407.5413
785.319	429.17196
785.503	482.26539
785.688	348.54859
785.872	334.78362
786.056	529.45956
786.241	442.93692
786.425	421.30626
786.609	555.02307
786.794	617.94862
786.978	617.94862
787.162	680.87418
787.346	706.43769
787.531	763.46397
787.715	881.44939
787.899	1028.93116
788.083	1066.29321
788.267	1021.06546
788.451	1280.63338
788.636	1278.66696
788.82	1437.94727
789.004	1540.2013
789.188	1673.91811
789.372	1752.57505
789.556	2120.29627
789.74	2110.46415
789.924	2362.16637
790.108	2421.15908
790.292	2696.45839
790.476	2739.71971
790.66	2623.70072
790.844	2647.2978
791.028	2389.6963
791.211	2373.96492
791.395	2250.08023
791.579	2059.33714
791.763	2059.33714
791.947	1941.35172
792.13	1784.03783
792.314	1707.34731
792.498	1721.11227
792.682	1544.13415
792.865	1626.72394
793.049	1634.58963
793.233	1719.14585
793.417	1650.32102
793.6	1730.94439
793.784	1905.95609
793.967	2086.86707
794.151	2242.21453
794.335	2409.36054
794.518	2523.41311
794.702	2761.35037
794.885	2997.3212
795.069	3172.33291
795.252	3103.50808
795.436	3211.66138
795.619	3160.53436
795.803	3231.32561
795.986	3079.911
796.169	2987.48909
796.353	2843.94016
796.536	2767.24964
796.72	2519.48026
796.903	2486.05106
797.086	2279.57658
797.27	2151.75905
797.453	2114.397
797.636	2029.84078
797.819	1927.58675
798.003	1968.88165
798.186	1846.96339
798.369	1705.38088
798.552	1567.73123
798.735	1728.97797
798.918	1754.54148
799.102	1850.89623
799.285	1681.7838
799.468	1813.53418
799.651	1677.85095
799.834	1911.85537
800.017	1848.92981
800.2	1996.41158
800.383	1982.64662
800.566	2025.90794
800.749	1898.0904
800.932	1941.35172
801.115	1988.54589
801.298	2021.97509
801.481	2136.02766
801.664	2175.35613
801.847	2436.89047
802.029	2307.10651
802.212	2501.78245
802.395	2584.37224
802.578	2429.02478
802.761	2570.60728
802.943	2670.89488
803.126	2798.71242
803.309	2743.65256
803.492	2830.1752
803.674	2869.50367
803.857	2906.86572
804.04	2952.09346
804.222	2826.24235
804.405	2755.4511
804.588	2708.25693
804.77	2723.98832
804.953	2725.95474
805.135	2588.30509
805.318	2568.64085
805.5	2415.25981
805.683	2383.79703
805.865	2537.17808
806.048	2446.72259
806.23	2405.42769
806.413	2415.25981
806.595	2377.89776
806.778	2328.73717
806.96	2448.68901
807.142	2318.90505
807.325	2405.42769
807.507	2210.75176
807.689	2051.47144
807.872	2116.36342
808.054	1795.83637
808.236	1913.82179
808.418	1640.48891
808.601	1603.12686
808.783	1571.66408
808.965	1388.78668
809.147	1546.10057
809.329	1207.87571
809.512	1650.32102
809.694	1323.8947
809.876	1080.05817
810.058	1213.77498
810.24	1255.06988
810.422	977.80415
810.604	1117.42022
810.786	1105.62168
810.968	999.43481
811.15	1111.52095
811.332	1019.09904
811.514	944.37494
811.696	792.96032
811.878	932.5764
812.06	991.56911
812.242	969.93845
812.424	867.68442
812.605	702.50484
812.787	773.29609
812.969	686.77345
813.151	783.12821
813.333	743.79973
813.514	606.15008
813.696	594.35154
813.878	594.35154
814.06	655.31067
814.241	547.15737
814.423	556.98949
814.605	480.29897
814.786	439.00407
814.968	460.63473
815.149	488.16466
815.331	383.94421
815.513	474.3997
815.694	450.80261
815.876	423.27268
816.057	368.21282
816.239	356.41428
816.42	535.35883
816.602	307.25369
816.783	289.55588
816.965	258.0931
817.146	421.30626
817.327	440.9705
817.509	472.43327
817.69	372.14567
817.872	395.74275
818.053	350.51501
818.234	242.36171
818.415	228.59675
818.597	311.18654
818.778	248.26098
818.959	322.98508
819.14	297.42157
819.322	399.6756
819.503	452.76904
819.684	338.71647
819.865	305.28727
820.046	380.01136
820.227	431.13838
820.409	503.89605
820.59	566.82161
820.771	317.08581
820.952	523.56029
821.133	517.66102
821.314	511.76175
821.495	389.84348
821.676	444.90334
821.857	488.16466
822.038	501.92963
822.219	615.9822
822.4	488.16466
822.58	486.19824
822.761	586.48584
822.942	525.52671
823.123	594.35154
823.304	680.87418
823.485	663.17637
823.665	700.53841
823.846	785.09463
824.027	735.93404
824.208	743.79973
824.388	818.52383
824.569	676.94133
824.75	702.50484
824.931	848.02019
825.111	617.94862
825.292	602.21723
825.472	470.46685
825.653	692.67272
825.834	427.20553
826.014	480.29897
826.195	468.50043
826.375	407.5413
826.556	415.40699
826.736	444.90334
826.917	543.22453
827.097	374.11209
827.278	391.80991
827.458	372.14567
827.638	415.40699
827.819	389.84348
827.999	433.1048
828.18	368.21282
828.36	315.11939
828.54	376.07852
828.721	397.70918
828.901	366.2464
829.081	380.01136
829.261	413.44057
829.442	415.40699
829.622	309.22011
829.802	413.44057
829.982	480.29897
830.162	324.9515
830.343	387.87706
830.523	413.44057
830.703	285.62303
830.883	299.388
831.063	267.92522
831.243	263.99237
831.423	216.7982
831.603	330.85077
831.783	263.99237
831.963	177.46973
832.143	116.5106
832.323	250.22741
832.503	130.27556
832.683	0.49161
832.863	163.70477
833.043	324.9515
833.223	163.70477
833.402	149.9398
833.582	92.91352
833.762	187.30185
833.942	240.39529
834.122	155.83907
834.301	177.46973
834.481	218.76463
834.661	155.83907
834.841	79.14855
835.02	116.5106
835.2	161.73834
835.38	262.02595
835.559	116.5106
835.739	33.92081
835.918	116.5106
836.098	173.53688
836.278	126.34272
836.457	88.98067
836.637	94.87994
836.816	92.91352
836.996	138.14126
837.175	142.07411
837.355	169.60404
837.534	183.369
837.714	108.64491
837.893	108.64491
838.072	187.30185
838.252	185.33543
838.431	126.34272
838.61	85.04782
838.79	33.92081
838.969	187.30185
839.148	236.46244
839.328	161.73834
839.507	265.95879
839.686	185.33543
839.865	159.77192
840.045	149.9398
840.224	149.9398
840.403	206.96609
840.582	254.16025
840.761	134.20841
840.94	334.78362
841.119	179.43616
841.298	193.20112
841.478	161.73834
841.657	134.20841
841.836	118.47702
842.015	81.11497
842.194	232.52959
842.373	208.93251
842.552	195.16754
842.73	181.40258
842.909	197.13397
843.088	271.85807
843.267	134.20841
843.446	195.16754
843.625	159.77192
843.804	197.13397
843.983	279.72376
844.161	336.75005
844.34	289.55588
844.519	134.20841
844.698	151.90622
844.876	83.0814
845.055	175.50331
845.234	171.57046
845.413	179.43616
845.591	197.13397
845.77	179.43616
845.948	224.6639
846.127	332.8172
846.306	187.30185
846.484	151.90622
846.663	191.2347
846.841	53.58504
847.02	157.8055
847.198	203.03324
847.377	263.99237
847.555	189.26827
847.734	187.30185
847.912	165.67119
848.091	167.63761
848.269	311.18654
848.447	222.69748
848.626	238.42886
848.804	338.71647
848.982	291.5223
849.161	230.56317
849.339	405.57487
849.517	315.11939
849.696	273.82449
849.874	358.3807
850.052	319.05223
850.23	328.88435
850.408	464.56758
850.587	431.13838
850.765	305.28727
850.943	484.23182
851.121	497.99678
851.299	425.23911
851.477	419.33984
851.655	494.06393
851.833	360.34713
852.011	511.76175
852.189	617.94862
852.367	570.75446
852.545	525.52671
852.723	674.97491
852.901	688.73987
853.079	549.1238
853.257	588.45227
853.435	588.45227
853.613	796.89317
853.791	627.78074
853.968	690.7063
854.146	659.24352
854.324	655.31067
854.502	798.8596
854.68	745.76616
854.857	883.41581
855.035	875.55012
855.213	1038.76328
855.39	893.24793
855.568	993.53553
855.746	885.38224
855.923	1062.36036
856.101	1184.27863
856.279	1211.80856
856.456	1152.81585
856.634	1203.94286
856.811	1249.1706
856.989	1304.23047
857.166	1422.21588
857.344	1624.75752
857.521	1622.79109
857.699	1587.39547
857.876	1689.6495
858.054	1961.01596
858.231	2126.19554
858.409	2328.73717
858.586	2539.1445
858.763	2672.86131
858.941	2784.94745
859.118	3201.82926
859.295	3437.80009
859.473	3789.78992
859.65	4387.5827
859.827	4666.81486
860.004	5443.55219
860.182	5941.05736
860.359	6562.44723
860.536	7156.30716
860.713	7732.46928
860.89	8062.82845
861.067	8440.38179
861.245	8554.43436
861.422	8418.75113
861.599	8155.25036
861.776	8251.60512
861.953	7573.18897
862.13	7293.95681
862.307	6525.08518
862.484	6436.59612
862.661	6074.77417
862.838	5689.35514
863.015	5183.98427
863.192	4892.95357
863.369	4538.99732
863.545	4487.87031
863.722	4063.12281
863.899	3964.80162
864.076	3943.17096
864.253	3907.77534
864.43	3897.94322
864.606	3968.73447
864.783	4000.19725
864.96	4181.10822
865.137	4120.14909
865.313	4247.96663
865.49	4078.85419
865.667	4198.80604
865.843	3982.49944
866.02	3833.05124
866.197	3683.60305
866.373	3604.9461
866.55	3451.56506
866.726	3520.38989
866.903	3284.41905
867.079	3370.94169
867.256	3186.09787
867.432	3278.51978
867.609	2967.82485
867.785	2999.28763
867.962	2946.19419
868.138	3072.0453
868.315	2908.83214
868.491	2961.92558
868.667	2938.32849
868.844	3022.88471
869.02	3170.36648
869.196	3168.40006
869.373	3223.45992
869.549	3270.65409
869.725	3429.9344
869.902	3209.69495
870.078	3573.48332
870.254	3451.56506
870.43	3502.69207
870.606	3626.57676
870.783	3658.03954
870.959	3547.91982
871.135	3730.79721
871.311	3563.65121
871.487	3492.85996
871.663	3469.26287
871.839	3311.94898
872.015	3280.4862
872.191	3156.60152
872.367	3113.3402
872.543	2912.76499
872.719	2897.0336
872.895	2708.25693
873.071	2879.33579
873.247	2645.33138
873.423	2761.35037
873.599	2521.44669
873.775	2643.36495
873.95	2590.27151
874.126	2482.11821
874.302	2399.52842
874.478	2438.8569
874.654	2450.65544
874.829	2360.19995
875.005	2466.38683
875.181	2448.68901
875.357	2314.97221
875.532	2269.74446
875.708	2468.35325
875.884	2499.81603
876.059	2474.25252
876.235	2478.18537
876.41	2478.18537
876.586	2617.80144
876.761	2637.46568
876.937	2816.41023
877.113	3034.68325
877.288	3276.55336
877.464	3211.66138
877.639	3563.65121
877.814	3720.9651
877.99	3931.37242
878.165	4013.96222
878.341	3980.53301
878.516	3986.43228
878.691	4128.01479
878.867	4238.13451
879.042	4133.91406
879.217	3956.93593
879.393	3935.30527
879.568	3895.9768
879.743	3730.79721
879.919	3404.37089
880.094	3571.5169
880.269	3571.5169
880.444	3465.33003
880.619	3213.6278
880.794	2956.02631
880.97	3097.60881
881.145	3013.05259
881.32	2985.52266
881.495	2954.05988
881.67	2751.51825
881.845	2716.12263
882.02	2674.82773
882.195	2708.25693
882.37	2476.21894
882.545	2550.94304
882.72	2387.72988
882.895	2474.25252
883.07	2399.52842
883.245	2519.48026
883.42	2261.87877
883.594	2281.54301
883.769	2110.46415
883.944	2179.28898
884.119	2045.57217
884.294	1884.32543
884.469	1953.15026
884.643	1903.98967
884.818	1778.13856
884.993	1862.69477
885.168	1648.3546
885.342	1573.6305
885.517	1491.04071
885.692	1447.77939
885.866	1410.41734
886.041	1300.29762
886.215	1323.8947
886.39	1329.79397
886.565	1168.54724
886.739	1215.7414
886.914	1203.94286
887.088	1093.82314
887.263	891.28151
887.437	891.28151
887.612	887.34866
887.786	848.02019
887.96	887.34866
888.135	869.65085
888.309	759.53112
888.484	867.68442
888.658	572.72088
888.832	639.57928
889.007	663.17637
889.181	537.32525
889.355	724.1355
889.529	812.62456
889.704	617.94862
889.878	637.61286
890.052	539.29168
890.226	665.14279
890.401	480.29897
890.575	653.34425
890.749	494.06393
890.923	533.39241
891.097	523.56029
891.271	535.35883
891.445	484.23182
891.619	427.20553
891.793	545.19095
891.967	496.03036
892.141	519.62744
892.315	419.33984
892.489	480.29897
892.663	460.63473
892.837	383.94421
893.011	442.93692
893.185	378.04494
893.359	431.13838
893.533	358.3807
893.706	372.14567
893.88	378.04494
894.054	376.07852
894.228	301.35442
894.402	380.01136
894.575	421.30626
894.749	429.17196
894.923	328.88435
895.097	433.1048
895.27	338.71647
895.444	370.17925
895.617	267.92522
895.791	368.21282
895.965	374.11209
896.138	258.0931
896.312	360.34713
896.485	269.89164
896.659	238.42886
896.832	334.78362
897.006	442.93692
897.179	305.28727
897.353	228.59675
897.526	228.59675
897.7	322.98508
897.873	334.78362
898.047	218.76463
898.22	303.32084
898.393	381.97779
898.567	326.91793
898.74	348.54859
898.913	368.21282
899.087	222.69748
899.26	413.44057
899.433	332.8172
899.606	397.70918
899.78	380.01136
899.953	291.5223
900.126	423.27268
900.299	480.29897
900.472	395.74275
900.645	460.63473
900.818	439.00407
900.992	553.05664
901.165	344.61574
901.338	421.30626
901.511	437.03765
901.684	545.19095
901.857	511.76175
902.03	458.66831
902.203	497.99678
902.376	586.48584
902.549	452.76904
902.721	558.95591
902.894	535.35883
903.067	444.90334
903.24	458.66831
903.413	417.37341
903.586	472.43327
903.759	472.43327
903.931	519.62744
904.104	476.36612
904.277	437.03765
904.45	551.09022
904.622	448.83619
904.795	462.60116
904.968	385.91064
905.14	358.3807
905.313	374.11209
905.486	442.93692
905.658	372.14567
905.831	385.91064
906.003	501.92963
906.176	427.20553
906.348	417.37341
906.521	464.56758
906.693	497.99678
906.866	431.13838
907.038	460.63473
907.211	446.86977
907.383	383.94421
907.556	279.72376
907.728	309.22011
907.9	431.13838
908.073	273.82449
908.245	309.22011
908.417	246.29456
908.59	260.05952
908.762	297.42157
908.934	281.69018
909.107	267.92522
909.279	338.71647
909.451	236.46244
909.623	163.70477
909.795	269.89164
909.967	155.83907
910.14	171.57046
910.312	334.78362
910.484	92.91352
910.656	197.13397
910.828	203.03324
911	167.63761
911.172	163.70477
911.344	92.91352
911.516	167.63761
911.688	100.77921
911.86	47.68577
912.032	6.39088
912.204	73.24928
912.376	20.15584
912.548	73.24928
912.72	136.17484
912.891	26.05511
913.063	0.49161
913.235	43.75293
913.407	106.67848
913.579	-27.03832
913.75	8.3573
913.922	85.04782
914.094	102.74563
914.266	53.58504
914.437	16.22299
914.609	55.55147
914.781	-68.33322
914.952	51.61862
915.124	132.24199
915.296	-1.47482
915.467	22.12227
915.639	8.3573
915.81	104.71206
915.982	18.18942
916.153	33.92081
916.325	-29.00475
916.496	-64.40037
916.668	28.02154
916.839	0.49161
917.011	177.46973
917.182	51.61862
917.353	81.11497
917.525	-1.47482
917.696	-38.83687
917.867	69.31643
918.039	94.87994
918.21	75.2157
918.381	-5.40766
918.553	81.11497
918.724	45.71935
918.895	4.42445
919.066	-44.73614
919.237	39.82008
919.409	-121.42666
919.58	-21.13905
919.751	144.04053
919.922	90.94709
920.093	-80.13176
920.264	41.7865
920.435	-7.37409
920.606	87.01425
920.777	-42.76971
920.948	-52.60183
921.119	248.26098
921.29	94.87994
921.461	26.05511
921.632	65.38359
921.803	-137.15805
921.974	92.91352
922.145	-5.40766
922.316	35.88723
922.487	39.82008
922.657	-58.5011
922.828	-40.80329
922.999	43.75293
923.17	14.25657
923.341	124.37629
923.511	43.75293
923.682	41.7865
923.853	81.11497
924.023	14.25657
924.194	124.37629
924.365	0.49161
924.535	-82.09819
924.706	-54.56826
924.877	6.39088
925.047	45.71935
925.218	-9.34051
925.388	-50.63541
925.559	2.45803
925.729	57.51789
925.9	-9.34051
926.07	-36.87044
926.241	114.54418
926.411	39.82008
926.582	0.49161
926.752	92.91352
926.922	59.48431
927.093	-17.20621
927.263	-84.06461
927.433	18.18942
927.604	26.05511
927.774	39.82008
927.944	10.32372
928.115	83.0814
928.285	149.9398
928.455	146.00695
928.625	-11.30694
928.795	-46.70256
928.966	-27.03832
929.136	31.95438
929.306	-21.13905
929.476	41.7865
929.646	24.08869
929.816	22.12227
929.986	35.88723
930.156	-50.63541
930.326	-46.70256
930.496	31.95438
930.666	26.05511
930.836	-86.03103
931.006	2.45803
931.176	4.42445
931.346	-21.13905
931.516	-38.83687
931.686	29.98796
931.856	12.29015
932.025	-80.13176
932.195	31.95438
932.365	2.45803
932.535	14.25657
932.705	29.98796
932.874	2.45803
933.044	-54.56826
933.214	-38.83687
933.384	14.25657
933.553	-13.27336
933.723	47.68577
933.893	96.84636
934.062	-42.76971
934.232	49.6522
934.401	-7.37409
934.571	-13.27336
934.74	59.48431
934.91	-7.37409
935.079	110.61133
935.249	43.75293
935.418	16.22299
935.588	67.35001
935.757	-46.70256
935.927	90.94709
936.096	-19.17263
936.266	-17.20621
936.435	-86.03103
936.604	-17.20621
936.774	39.82008
936.943	-23.10548
937.112	49.6522
937.282	161.73834
937.451	81.11497
937.62	73.24928
937.789	24.08869
937.958	67.35001
938.128	-19.17263
938.297	59.48431
938.466	16.22299
938.635	-32.9376
938.804	-38.83687
938.973	-56.53468
939.142	112.57775
939.312	108.64491
939.481	65.38359
939.65	18.18942
939.819	-40.80329
939.988	0.49161
940.157	-17.20621
940.326	-30.97117
940.494	0.49161
940.663	-95.86315
940.832	-21.13905
941.001	41.7865
941.17	110.61133
941.339	85.04782
941.508	33.92081
941.677	122.40987
941.845	24.08869
942.014	-150.92301
942.183	26.05511
942.352	-74.23249
942.52	-1.47482
942.689	-117.49381
942.858	-21.13905
943.026	-3.44124
943.195	26.05511
943.364	22.12227
943.532	-48.66898
943.701	-66.3668
943.869	-44.73614
944.038	71.28286
944.206	124.37629
944.375	6.39088
944.544	47.68577
944.712	-58.5011
944.88	47.68577
945.049	104.71206
945.217	69.31643
945.386	-56.53468
945.554	24.08869
945.723	-52.60183
945.891	-23.10548
946.059	96.84636
946.228	-9.34051
946.396	83.0814
946.564	35.88723
946.732	-70.29964
946.901	-11.30694
947.069	-52.60183
947.237	39.82008
947.405	55.55147
947.573	73.24928
947.742	28.02154
947.91	-58.5011
948.078	-29.00475
948.246	-60.46753
948.414	28.02154
948.582	20.15584
948.75	87.01425
948.918	20.15584
949.086	20.15584
949.254	39.82008
949.422	65.38359
949.59	59.48431
949.758	28.02154
949.926	-68.33322
950.094	155.83907
950.262	0.49161
950.43	-46.70256
950.598	-48.66898
950.765	24.08869
950.933	-64.40037
951.101	-13.27336
951.269	-17.20621
951.437	-44.73614
951.604	-84.06461
951.772	45.71935
951.94	28.02154
952.107	29.98796
952.275	0.49161
952.443	-101.76242
952.61	-17.20621
952.778	-87.99746
952.946	-36.87044
953.113	20.15584
953.281	18.18942
953.448	-64.40037
953.616	45.71935
953.783	118.47702
953.951	-32.9376
954.118	110.61133
954.286	-56.53468
954.453	53.58504
954.621	-62.43395
954.788	-29.00475
954.955	-38.83687
955.123	26.05511
955.29	116.5106
955.457	-87.99746
955.625	-46.70256
955.792	-13.27336
955.959	63.41716
956.126	29.98796
956.294	14.25657
956.461	-46.70256
956.628	-46.70256
956.795	-42.76971
956.962	-68.33322
957.13	112.57775
957.297	35.88723
957.464	0.49161
957.631	85.04782
957.798	24.08869
957.965	28.02154
958.132	22.12227
958.299	-76.19892
958.466	2.45803
958.633	-30.97117
958.8	-74.23249
958.967	33.92081
959.134	-38.83687
959.301	35.88723
959.468	49.6522
959.634	55.55147
959.801	122.40987
959.968	-60.46753
960.135	14.25657
960.302	-42.76971
960.469	51.61862
960.635	-78.16534
960.802	83.0814
960.969	-103.72885
961.135	-38.83687
961.302	2.45803
961.469	-36.87044
961.635	151.90622
961.802	-25.0719
961.969	-15.23978
962.135	35.88723
962.302	-3.44124
962.468	146.00695
962.635	69.31643
962.802	-40.80329
962.968	-91.9303
963.135	37.85365
963.301	-21.13905
963.467	104.71206
963.634	45.71935
963.8	8.3573
963.967	-9.34051
964.133	47.68577
964.299	-7.37409
964.466	65.38359
964.632	-3.44124
964.798	10.32372
964.965	-86.03103
965.131	65.38359
965.297	-3.44124
965.463	18.18942
965.63	-113.56096
965.796	-86.03103
965.962	0.49161
966.128	-1.47482
966.294	63.41716
966.46	-3.44124
966.627	130.27556
966.793	14.25657
966.959	-60.46753
967.125	69.31643
967.291	-56.53468
967.457	-62.43395
967.623	-29.00475
967.789	79.14855
967.955	-107.66169
968.121	88.98067
968.287	-21.13905
968.452	-30.97117
968.618	24.08869
968.784	55.55147
968.95	-3.44124
969.116	47.68577
969.282	63.41716
969.447	-107.66169
969.613	79.14855
969.779	-23.10548
969.945	-13.27336
970.11	-1.47482
970.276	-38.83687
970.442	51.61862
970.607	98.81279
970.773	-82.09819
970.939	-80.13176
971.104	181.40258
971.27	-21.13905
971.436	47.68577
971.601	-86.03103
971.767	-1.47482
971.932	-27.03832
972.098	63.41716
972.263	0.49161
972.429	-145.02374
972.594	22.12227
972.759	29.98796
972.925	33.92081
973.09	87.01425
973.256	-52.60183
973.421	10.32372
973.586	124.37629
973.752	-3.44124
973.917	69.31643
974.082	59.48431
974.247	63.41716
974.413	-40.80329
974.578	55.55147
974.743	-17.20621
974.908	-34.90402
975.074	67.35001
975.239	45.71935
975.404	96.84636
975.569	18.18942
975.734	-44.73614
975.899	-15.23978
976.064	-119.46023
976.229	51.61862
976.394	-15.23978
976.559	-19.17263
976.724	-27.03832
976.889	88.98067
977.054	61.45074
977.219	98.81279
977.384	4.42445
977.549	-36.87044
977.714	0.49161
977.879	-72.26607
978.043	53.58504
978.208	33.92081
978.373	59.48431
978.538	-30.97117
978.703	-5.40766
978.867	77.18213
979.032	-34.90402
979.197	0.49161
979.362	18.18942
979.526	-30.97117
979.691	-44.73614
979.856	-42.76971
980.02	-9.34051
980.185	-19.17263
980.349	-166.6544
980.514	8.3573
980.678	-74.23249
980.843	108.64491
981.007	-58.5011
981.172	81.11497
981.336	-5.40766
981.501	-54.56826
981.665	2.45803
981.83	12.29015
981.994	-54.56826
982.159	-34.90402
982.323	-48.66898
982.487	-23.10548
982.652	49.6522
982.816	-113.56096
982.98	-36.87044
983.144	-68.33322
983.309	28.02154
983.473	169.60404
983.637	31.95438
983.801	-78.16534
983.966	28.02154
984.13	16.22299
984.294	37.85365
984.458	-1.47482
984.622	-52.60183
984.786	-11.30694
984.95	112.57775
985.114	-36.87044
985.278	-56.53468
985.442	-38.83687
985.606	-29.00475
985.77	55.55147
985.934	106.67848
986.098	-95.86315
986.262	-54.56826
986.426	35.88723
986.59	-50.63541
986.754	29.98796
986.918	-1.47482
987.082	-70.29964
987.245	-58.5011
987.409	88.98067
987.573	-13.27336
987.737	-87.99746
987.9	-15.23978
988.064	28.02154
988.228	28.02154
988.392	-152.88944
988.555	18.18942
988.719	-56.53468
988.882	-7.37409
989.046	-89.96388
989.21	-25.0719
989.373	-19.17263
989.537	96.84636
989.7	81.11497
989.864	37.85365
990.027	-139.12447
990.191	59.48431
990.354	-30.97117
990.518	-74.23249
990.681	-44.73614
990.845	-50.63541
991.008	-21.13905
991.171	55.55147
991.335	-3.44124
991.498	-97.82958
991.661	-27.03832
991.825	59.48431
991.988	116.5106
992.151	-46.70256
992.314	-121.42666
992.478	45.71935
992.641	55.55147
992.804	6.39088
992.967	-52.60183
993.13	0.49161
993.294	159.77192
993.457	-113.56096
993.62	-40.80329
993.783	75.2157
993.946	-62.43395
994.109	-66.3668
994.272	-38.83687
994.435	-17.20621
994.598	16.22299
994.761	20.15584
994.924	-48.66898
995.087	0.49161
995.25	-9.34051
995.413	-40.80329
995.575	-30.97117
995.738	-32.9376
995.901	-25.0719
996.064	45.71935
996.227	-60.46753
996.39	-23.10548
996.552	-21.13905
996.715	37.85365
996.878	-29.00475
997.041	31.95438
997.203	161.73834
997.366	24.08869
997.529	37.85365
997.691	71.28286
997.854	-25.0719
998.016	-27.03832
998.179	29.98796
998.342	6.39088
998.504	-56.53468
998.667	14.25657
998.829	94.87994
998.992	-17.20621
999.154	26.05511
999.317	-17.20621
999.479	-9.34051
999.641	-148.95659
999.804	57.51789
999.966	24.08869
1000.128	57.51789
1000.291	104.71206
1000.453	-23.10548
1000.615	-7.37409
1000.778	-42.76971
1000.94	31.95438
1001.102	-74.23249
1001.264	-52.60183
1001.427	-27.03832
1001.589	-54.56826
1001.751	-11.30694
1001.913	-72.26607
1002.075	-46.70256
1002.237	147.97338
1002.4	-11.30694
1002.562	14.25657
1002.724	18.18942
1002.886	-38.83687
1003.048	53.58504
1003.21	87.01425
1003.372	-21.13905
1003.534	8.3573
1003.696	31.95438
1003.858	-95.86315
1004.02	-91.9303
1004.181	-30.97117
1004.343	28.02154
1004.505	18.18942
1004.667	-60.46753
1004.829	31.95438
1004.991	49.6522
1005.152	65.38359
1005.314	-30.97117
1005.476	20.15584
1005.638	-72.26607
1005.799	31.95438
1005.961	20.15584
1006.123	-145.02374
1006.284	-52.60183
1006.446	14.25657
1006.608	22.12227
1006.769	79.14855
1006.931	75.2157
1007.092	-86.03103
1007.254	124.37629
1007.416	10.32372
1007.577	-15.23978
1007.739	-135.19162
1007.9	-125.35951
1008.061	-25.0719
1008.223	-50.63541
1008.384	-25.0719
1008.546	53.58504
1008.707	-48.66898
1008.868	-68.33322
1009.03	-7.37409
1009.191	33.92081
1009.352	-5.40766
1009.514	33.92081
1009.675	-42.76971
1009.836	-50.63541
1009.997	-62.43395
1010.159	87.01425
1010.32	-168.62083
1010.481	16.22299
1010.642	12.29015
1010.803	55.55147
1010.964	-34.90402
1011.126	-60.46753
1011.287	-40.80329
1011.448	79.14855
1011.609	-86.03103
1011.77	-3.44124
1011.931	-74.23249
1012.092	14.25657
1012.253	-3.44124
1012.414	-5.40766
1012.575	75.2157
1012.736	-5.40766
1012.896	-1.47482
1013.057	55.55147
1013.218	-46.70256
1013.379	35.88723
1013.54	-23.10548
1013.701	-9.34051
1013.861	65.38359
1014.022	-91.9303
1014.183	100.77921
1014.344	-29.00475
1014.504	-60.46753
1014.665	-152.88944
1014.826	31.95438
1014.986	6.39088
1015.147	-125.35951
1015.308	4.42445
1015.468	41.7865
1015.629	4.42445
1015.789	-103.72885
1015.95	-78.16534
1016.111	-7.37409
1016.271	8.3573
1016.432	-76.19892
1016.592	-84.06461
1016.752	106.67848
1016.913	-11.30694
1017.073	-87.99746
1017.234	-19.17263
1017.394	28.02154
1017.554	8.3573
1017.715	45.71935
1017.875	-40.80329
1018.035	6.39088
1018.196	-62.43395
1018.356	4.42445
1018.516	-29.00475
1018.676	-44.73614
1018.837	-25.0719
1018.997	120.44345
1019.157	2.45803
1019.317	20.15584
1019.477	-97.82958
1019.637	-5.40766
1019.798	8.3573
1019.958	75.2157
1020.118	-11.30694
1020.278	-13.27336
1020.438	110.61133
1020.598	-84.06461
1020.758	49.6522
1020.918	-68.33322
1021.078	102.74563
1021.238	35.88723
1021.397	-15.23978
1021.557	153.87265
1021.717	110.61133
1021.877	-30.97117
1022.037	-99.796
1022.197	-19.17263
1022.357	63.41716
1022.516	-103.72885
1022.676	-119.46023
1022.836	-23.10548
1022.996	4.42445
1023.155	-32.9376
1023.315	10.32372
1023.475	-95.86315
1023.634	55.55147
1023.794	-11.30694
1023.954	-52.60183
1024.113	71.28286
1024.273	77.18213
1024.432	-93.89673
1024.592	59.48431
1024.751	20.15584
1024.911	-23.10548
1025.07	29.98796
1025.23	61.45074
1025.389	18.18942
1025.549	31.95438
1025.708	-21.13905
1025.868	-17.20621
1026.027	73.24928
1026.186	-3.44124
1026.346	-107.66169
1026.505	-3.44124
1026.664	-9.34051
1026.823	4.42445
1026.983	20.15584
1027.142	-23.10548
1027.301	-30.97117
1027.46	-52.60183
1027.62	-9.34051
1027.779	-30.97117
1027.938	-3.44124
1028.097	-13.27336
1028.256	39.82008
1028.415	37.85365
1028.574	55.55147
1028.733	39.82008
1028.892	-23.10548
1029.051	4.42445
1029.21	26.05511
1029.369	10.32372
1029.528	12.29015
1029.687	-46.70256
1029.846	-29.00475
1030.005	-7.37409
1030.164	-19.17263
1030.323	28.02154
1030.482	6.39088
1030.641	47.68577
1030.799	92.91352
1030.958	-141.09089
1031.117	-15.23978
1031.276	33.92081
1031.435	134.20841
1031.593	-29.00475
1031.752	-9.34051
1031.911	106.67848
1032.069	-152.88944
1032.228	22.12227
1032.387	-15.23978
1032.545	77.18213
1032.704	87.01425
1032.862	-101.76242
1033.021	-21.13905
1033.179	-78.16534
1033.338	22.12227
1033.496	-52.60183
1033.655	18.18942
1033.813	-11.30694
1033.972	71.28286
1034.13	-64.40037
1034.289	-15.23978
1034.447	-78.16534
1034.605	-32.9376
1034.764	-36.87044
1034.922	-17.20621
1035.08	-66.3668
1035.239	26.05511
1035.397	-84.06461
1035.555	-7.37409
1035.713	69.31643
1035.872	100.77921
1036.03	16.22299
1036.188	-7.37409
1036.346	120.44345
1036.504	49.6522
1036.662	-76.19892
1036.821	16.22299
1036.979	100.77921
1037.137	4.42445
1037.295	35.88723
1037.453	98.81279
1037.611	-52.60183
1037.769	81.11497
1037.927	22.12227
1038.085	22.12227
1038.243	12.29015
1038.401	55.55147
1038.559	55.55147
