Data from LiYF4_Nd_2.5 pc_100 C_Subt2__0__16-37-25-151.txt Node

Date: Thu May 14 16:37:25 CEST 2026
User: NP.5066655
Spectrometer: FLMT06117
Trigger mode: 0
Integration Time (sec): 2.500000E-1
Scans to average: 1
Electric dark correction enabled: true
Nonlinearity correction enabled: false
Boxcar width: 0
XAxis mode: Wavelengths
Number of Pixels in Spectrum: 3648
>>>>>Begin Spectral Data<<<<<
346.633	22.94161
346.852	22.94161
347.071	22.94161
347.29	-49.81607
347.51	44.57227
347.729	-122.57374
347.948	-51.78249
348.167	117.32994
348.386	-85.21169
348.606	-2.6219
348.825	20.97519
349.044	74.06862
349.263	-95.04381
349.482	-51.78249
349.701	150.75914
349.92	1.31095
350.139	83.90074
350.358	-12.45402
350.577	60.30366
350.796	-8.52117
351.015	121.26279
351.234	-104.87593
351.453	20.97519
351.672	24.90803
351.891	-14.42044
352.11	34.74015
352.329	-45.88322
352.548	64.2365
352.767	-118.64089
352.986	129.12848
353.204	-16.38686
353.423	-0.65547
353.642	-213.02923
353.861	-71.44672
354.08	-59.64818
354.298	11.14307
354.517	-8.52117
354.736	58.33723
354.955	-55.71534
355.173	-8.52117
355.392	-6.55475
355.611	19.00876
355.829	-22.28613
356.048	20.97519
356.267	-87.17811
356.485	11.14307
356.704	87.83359
356.922	34.74015
357.141	28.84088
357.36	123.22921
357.578	-10.48759
357.797	78.00147
358.015	42.60585
358.234	-57.68176
358.452	107.49782
358.671	-73.41315
358.889	68.16935
359.108	40.63942
359.326	-41.95037
359.544	9.17664
359.763	-26.21898
359.981	76.03505
360.2	15.07591
360.418	-10.48759
360.636	-63.58103
360.855	9.17664
361.073	-65.54745
361.291	-36.0511
361.509	-38.01752
361.728	24.90803
361.946	-0.65547
362.164	142.89345
362.382	-0.65547
362.601	-43.91679
362.819	-122.57374
363.037	-49.81607
363.255	50.47154
363.473	-12.45402
363.691	76.03505
363.909	17.04234
364.128	60.30366
364.346	56.37081
364.564	64.2365
364.782	44.57227
365	62.27008
365.218	28.84088
365.436	-8.52117
365.654	19.00876
365.872	-49.81607
366.09	79.96789
366.308	99.63213
366.526	103.56498
366.743	-93.07738
366.961	13.10949
367.179	42.60585
367.397	52.43796
367.615	46.53869
367.833	11.14307
368.051	123.22921
368.268	5.2438
368.486	28.84088
368.704	-28.18541
368.922	-114.70804
369.14	-30.15183
369.357	-34.08468
369.575	-10.48759
369.793	3.27737
370.01	48.50512
370.228	85.86716
370.446	-18.35329
370.663	-18.35329
370.881	105.5314
371.099	129.12848
371.316	56.37081
371.534	36.70657
371.751	44.57227
371.969	42.60585
372.186	17.04234
372.404	7.21022
372.621	103.56498
372.839	-81.27884
373.056	38.673
373.274	-43.91679
373.491	113.3971
373.709	26.87446
373.926	142.89345
374.144	136.99418
374.361	34.74015
374.578	42.60585
374.796	-93.07738
375.013	78.00147
375.23	54.40439
375.448	166.49053
375.665	-6.55475
375.882	-16.38686
376.099	-45.88322
376.317	26.87446
376.534	113.3971
376.751	3.27737
376.968	48.50512
377.186	85.86716
377.403	-20.31971
377.62	127.16206
377.837	76.03505
378.054	11.14307
378.271	46.53869
378.488	-100.94308
378.705	113.3971
378.923	-10.48759
379.14	-26.21898
379.357	26.87446
379.574	-36.0511
379.791	-26.21898
380.008	9.17664
380.225	-49.81607
380.442	66.20293
380.659	-6.55475
380.875	20.97519
381.092	-39.98395
381.309	-81.27884
381.526	42.60585
381.743	-51.78249
381.96	17.04234
382.177	44.57227
382.394	44.57227
382.61	15.07591
382.827	20.97519
383.044	-4.58832
383.261	-22.28613
383.477	28.84088
383.694	46.53869
383.911	-85.21169
384.128	87.83359
384.344	152.72557
384.561	-65.54745
384.778	-47.84964
384.994	19.00876
385.211	22.94161
385.428	-49.81607
385.644	-89.14454
385.861	174.35623
386.077	1.31095
386.294	3.27737
386.51	44.57227
386.727	87.83359
386.943	11.14307
387.16	38.673
387.376	-12.45402
387.593	107.49782
387.809	-24.25256
388.026	3.27737
388.242	-65.54745
388.459	9.17664
388.675	36.70657
388.891	64.2365
389.108	166.49053
389.324	40.63942
389.54	70.13578
389.757	-89.14454
389.973	34.74015
390.189	97.66571
390.405	-154.03652
390.622	-59.64818
390.838	-6.55475
391.054	11.14307
391.27	87.83359
391.487	76.03505
391.703	-41.95037
391.919	42.60585
392.135	66.20293
392.351	26.87446
392.567	44.57227
392.783	68.16935
393	68.16935
393.216	26.87446
393.432	58.33723
393.648	-124.54016
393.864	-136.3387
394.08	9.17664
394.296	-47.84964
394.512	-85.21169
394.728	26.87446
394.944	-61.61461
395.16	3.27737
395.375	-45.88322
395.591	50.47154
395.807	1.31095
396.023	42.60585
396.239	1.31095
396.455	-4.58832
396.671	58.33723
396.886	-63.58103
397.102	-36.0511
397.318	-28.18541
397.534	-28.18541
397.749	34.74015
397.965	176.32265
398.181	66.20293
398.397	56.37081
398.612	11.14307
398.828	50.47154
399.044	-55.71534
399.259	-45.88322
399.475	152.72557
399.691	26.87446
399.906	22.94161
400.122	-83.24527
400.337	38.673
400.553	34.74015
400.768	66.20293
400.984	62.27008
401.199	-67.51388
401.415	28.84088
401.63	66.20293
401.846	-18.35329
402.061	32.77373
402.277	28.84088
402.492	5.2438
402.708	-69.4803
402.923	-116.67447
403.138	-28.18541
403.354	76.03505
403.569	142.89345
403.784	7.21022
404	-63.58103
404.215	107.49782
404.43	-65.54745
404.645	-4.58832
404.861	28.84088
405.076	-22.28613
405.291	20.97519
405.506	-30.15183
405.722	-34.08468
405.937	64.2365
406.152	-12.45402
406.367	20.97519
406.582	-36.0511
406.797	-93.07738
407.012	54.40439
407.227	-65.54745
407.442	-18.35329
407.658	1.31095
407.873	-43.91679
408.088	111.43067
408.303	68.16935
408.518	-10.48759
408.733	-24.25256
408.947	-108.80877
409.162	-4.58832
409.377	123.22921
409.592	91.76644
409.807	48.50512
410.022	-32.11825
410.237	9.17664
410.452	64.2365
410.667	111.43067
410.881	-20.31971
411.096	44.57227
411.311	168.45696
411.526	50.47154
411.741	-4.58832
411.955	11.14307
412.17	32.77373
412.385	26.87446
412.599	-51.78249
412.814	40.63942
413.029	17.04234
413.243	-16.38686
413.458	46.53869
413.673	87.83359
413.887	93.73286
414.102	-83.24527
414.316	-14.42044
414.531	58.33723
414.746	58.33723
414.96	95.69928
415.175	13.10949
415.389	-36.0511
415.604	26.87446
415.818	17.04234
416.032	-32.11825
416.247	60.30366
416.461	-24.25256
416.676	-69.4803
416.89	26.87446
417.105	-53.74891
417.319	68.16935
417.533	60.30366
417.748	-71.44672
417.962	-97.01023
418.176	62.27008
418.39	76.03505
418.605	-2.6219
418.819	95.69928
419.033	-18.35329
419.247	48.50512
419.462	-49.81607
419.676	28.84088
419.89	15.07591
420.104	17.04234
420.318	-12.45402
420.532	-38.01752
420.747	17.04234
420.961	-36.0511
421.175	-0.65547
421.389	15.07591
421.603	42.60585
421.817	-55.71534
422.031	-6.55475
422.245	-36.0511
422.459	15.07591
422.673	123.22921
422.887	-39.98395
423.101	-28.18541
423.315	13.10949
423.529	-36.0511
423.743	91.76644
423.956	111.43067
424.17	-6.55475
424.384	-57.68176
424.598	-28.18541
424.812	-45.88322
425.026	3.27737
425.239	-12.45402
425.453	-49.81607
425.667	17.04234
425.881	19.00876
426.095	3.27737
426.308	5.2438
426.522	60.30366
426.736	78.00147
426.949	225.48324
427.163	28.84088
427.377	32.77373
427.59	44.57227
427.804	64.2365
428.017	44.57227
428.231	87.83359
428.445	30.8073
428.658	-85.21169
428.872	30.8073
429.085	76.03505
429.299	30.8073
429.512	-2.6219
429.726	-91.11096
429.939	-10.48759
430.153	135.02776
430.366	3.27737
430.579	-57.68176
430.793	-87.17811
431.006	119.29637
431.22	-12.45402
431.433	-2.6219
431.646	-49.81607
431.86	83.90074
432.073	26.87446
432.286	-18.35329
432.499	1.31095
432.713	1.31095
432.926	17.04234
433.139	-83.24527
433.352	-116.67447
433.565	66.20293
433.779	66.20293
433.992	-47.84964
434.205	58.33723
434.418	7.21022
434.631	70.13578
434.844	-22.28613
435.057	64.2365
435.271	5.2438
435.484	-20.31971
435.697	-106.84235
435.91	121.26279
436.123	34.74015
436.336	-14.42044
436.549	-43.91679
436.762	22.94161
436.975	-10.48759
437.187	17.04234
437.4	93.73286
437.613	56.37081
437.826	-16.38686
438.039	123.22921
438.252	50.47154
438.465	17.04234
438.678	-0.65547
438.89	-22.28613
439.103	-53.74891
439.316	56.37081
439.529	-28.18541
439.741	15.07591
439.954	85.86716
440.167	3.27737
440.38	-43.91679
440.592	74.06862
440.805	1.31095
441.018	50.47154
441.23	5.2438
441.443	79.96789
441.656	17.04234
441.868	-39.98395
442.081	64.2365
442.293	103.56498
442.506	26.87446
442.718	11.14307
442.931	54.40439
443.143	78.00147
443.356	129.12848
443.568	105.5314
443.781	52.43796
443.993	30.8073
444.206	121.26279
444.418	81.93432
444.63	-16.38686
444.843	48.50512
445.055	13.10949
445.268	-45.88322
445.48	-169.76791
445.692	76.03505
445.904	97.66571
446.117	-120.60732
446.329	-16.38686
446.541	54.40439
446.754	52.43796
446.966	5.2438
447.178	13.10949
447.39	-36.0511
447.602	22.94161
447.815	44.57227
448.027	-77.346
448.239	5.2438
448.451	42.60585
448.663	-6.55475
448.875	56.37081
449.087	78.00147
449.299	52.43796
449.511	34.74015
449.723	-32.11825
449.935	81.93432
450.147	136.99418
450.359	-26.21898
450.571	38.673
450.783	46.53869
450.995	15.07591
451.207	-30.15183
451.419	36.70657
451.631	129.12848
451.843	42.60585
452.055	133.06133
452.266	42.60585
452.478	-2.6219
452.69	3.27737
452.902	26.87446
453.114	-71.44672
453.325	-18.35329
453.537	-77.346
453.749	-2.6219
453.961	79.96789
454.172	58.33723
454.384	-81.27884
454.596	97.66571
454.807	1.31095
455.019	105.5314
455.23	91.76644
455.442	-14.42044
455.654	-51.78249
455.865	-114.70804
456.077	-55.71534
456.288	20.97519
456.5	30.8073
456.711	-110.7752
456.923	-45.88322
457.134	113.3971
457.346	32.77373
457.557	-104.87593
457.769	93.73286
457.98	188.12119
458.192	85.86716
458.403	-12.45402
458.614	24.90803
458.826	15.07591
459.037	123.22921
459.248	140.92703
459.46	-75.37957
459.671	89.80001
459.882	-8.52117
460.094	83.90074
460.305	-18.35329
460.516	-24.25256
460.727	66.20293
460.938	125.19564
461.15	-89.14454
461.361	123.22921
461.572	-38.01752
461.783	64.2365
461.994	26.87446
462.205	150.75914
462.416	68.16935
462.627	-67.51388
462.839	93.73286
463.05	76.03505
463.261	-16.38686
463.472	-41.95037
463.683	-0.65547
463.894	-16.38686
464.105	36.70657
464.316	-134.37228
464.526	48.50512
464.737	38.673
464.948	129.12848
465.159	17.04234
465.37	7.21022
465.581	-16.38686
465.792	-20.31971
466.003	-20.31971
466.213	-106.84235
466.424	135.02776
466.635	-20.31971
466.846	60.30366
467.057	72.1022
467.267	79.96789
467.478	-63.58103
467.689	91.76644
467.899	13.10949
468.11	125.19564
468.321	-36.0511
468.531	-89.14454
468.742	-26.21898
468.953	-41.95037
469.163	-32.11825
469.374	-51.78249
469.584	20.97519
469.795	-10.48759
470.005	111.43067
470.216	13.10949
470.426	-28.18541
470.637	-2.6219
470.847	56.37081
471.058	3.27737
471.268	-41.95037
471.479	-8.52117
471.689	-41.95037
471.9	-4.58832
472.11	-67.51388
472.32	40.63942
472.531	1.31095
472.741	111.43067
472.951	3.27737
473.162	-18.35329
473.372	42.60585
473.582	42.60585
473.792	70.13578
474.003	46.53869
474.213	5.2438
474.423	22.94161
474.633	26.87446
474.843	36.70657
475.054	-83.24527
475.264	24.90803
475.474	-30.15183
475.684	76.03505
475.894	-34.08468
476.104	-36.0511
476.314	-36.0511
476.524	-67.51388
476.734	20.97519
476.944	9.17664
477.154	7.21022
477.364	-51.78249
477.574	-28.18541
477.784	9.17664
477.994	-12.45402
478.204	28.84088
478.414	58.33723
478.624	-18.35329
478.834	22.94161
479.044	44.57227
479.254	-45.88322
479.463	44.57227
479.673	1.31095
479.883	38.673
480.093	-14.42044
480.303	-12.45402
480.512	9.17664
480.722	50.47154
480.932	11.14307
481.142	70.13578
481.351	54.40439
481.561	19.00876
481.771	-30.15183
481.98	-24.25256
482.19	-4.58832
482.399	-32.11825
482.609	40.63942
482.819	-51.78249
483.028	-43.91679
483.238	22.94161
483.447	-8.52117
483.657	26.87446
483.866	95.69928
484.076	34.74015
484.285	150.75914
484.495	26.87446
484.704	40.63942
484.914	62.27008
485.123	62.27008
485.332	11.14307
485.542	-34.08468
485.751	78.00147
485.961	-85.21169
486.17	-69.4803
486.379	34.74015
486.589	20.97519
486.798	-22.28613
487.007	66.20293
487.216	38.673
487.426	119.29637
487.635	60.30366
487.844	38.673
488.053	-22.28613
488.262	119.29637
488.472	78.00147
488.681	68.16935
488.89	133.06133
489.099	3.27737
489.308	78.00147
489.517	121.26279
489.726	-2.6219
489.935	15.07591
490.144	46.53869
490.353	28.84088
490.562	30.8073
490.771	17.04234
490.98	5.2438
491.189	40.63942
491.398	76.03505
491.607	123.22921
491.816	62.27008
492.025	-49.81607
492.234	46.53869
492.443	-77.346
492.652	-26.21898
492.86	48.50512
493.069	-65.54745
493.278	79.96789
493.487	-47.84964
493.696	-41.95037
493.904	121.26279
494.113	13.10949
494.322	7.21022
494.53	-49.81607
494.739	56.37081
494.948	-10.48759
495.156	36.70657
495.365	-16.38686
495.574	-41.95037
495.782	19.00876
495.991	72.1022
496.2	20.97519
496.408	66.20293
496.617	-120.60732
496.825	93.73286
497.034	54.40439
497.242	60.30366
497.451	81.93432
497.659	-45.88322
497.868	-53.74891
498.076	-106.84235
498.285	76.03505
498.493	50.47154
498.701	11.14307
498.91	74.06862
499.118	58.33723
499.326	-85.21169
499.535	42.60585
499.743	-34.08468
499.951	-36.0511
500.16	-26.21898
500.368	3.27737
500.576	-8.52117
500.784	28.84088
500.993	-18.35329
501.201	64.2365
501.409	152.72557
501.617	-18.35329
501.825	13.10949
502.034	142.89345
502.242	7.21022
502.45	24.90803
502.658	-18.35329
502.866	24.90803
503.074	54.40439
503.282	87.83359
503.49	-16.38686
503.698	-38.01752
503.906	-51.78249
504.114	123.22921
504.322	11.14307
504.53	58.33723
504.738	11.14307
504.946	-75.37957
505.154	-89.14454
505.362	83.90074
505.57	-20.31971
505.777	70.13578
505.985	-4.58832
506.193	13.10949
506.401	24.90803
506.609	-55.71534
506.816	-59.64818
507.024	-69.4803
507.232	127.16206
507.44	58.33723
507.647	-32.11825
507.855	40.63942
508.063	50.47154
508.271	-0.65547
508.478	74.06862
508.686	-0.65547
508.893	11.14307
509.101	-2.6219
509.309	81.93432
509.516	-77.346
509.724	-16.38686
509.931	-91.11096
510.139	13.10949
510.346	3.27737
510.554	121.26279
510.761	-0.65547
510.969	50.47154
511.176	40.63942
511.384	85.86716
511.591	-26.21898
511.799	-43.91679
512.006	32.77373
512.213	-43.91679
512.421	91.76644
512.628	40.63942
512.835	-34.08468
513.043	121.26279
513.25	79.96789
513.457	28.84088
513.664	74.06862
513.872	44.57227
514.079	26.87446
514.286	7.21022
514.493	5.2438
514.701	95.69928
514.908	20.97519
515.115	40.63942
515.322	93.73286
515.529	72.1022
515.736	117.32994
515.943	-53.74891
516.15	11.14307
516.357	-181.56645
516.564	15.07591
516.772	-36.0511
516.979	117.32994
517.186	28.84088
517.392	113.3971
517.599	156.65842
517.806	20.97519
518.013	-34.08468
518.22	79.96789
518.427	56.37081
518.634	-16.38686
518.841	1.31095
519.048	-112.74162
519.255	-28.18541
519.461	81.93432
519.668	103.56498
519.875	125.19564
520.082	103.56498
520.289	-110.7752
520.495	-8.52117
520.702	26.87446
520.909	-18.35329
521.115	-118.64089
521.322	36.70657
521.529	-45.88322
521.735	-39.98395
521.942	-26.21898
522.149	17.04234
522.355	13.10949
522.562	-8.52117
522.768	-55.71534
522.975	-14.42044
523.181	11.14307
523.388	-41.95037
523.595	1.31095
523.801	17.04234
524.007	38.673
524.214	1.31095
524.42	9.17664
524.627	133.06133
524.833	-39.98395
525.04	83.90074
525.246	22.94161
525.452	15.07591
525.659	-10.48759
525.865	66.20293
526.071	79.96789
526.278	17.04234
526.484	52.43796
526.69	-34.08468
526.896	74.06862
527.103	70.13578
527.309	22.94161
527.515	1.31095
527.721	-2.6219
527.927	121.26279
528.134	107.49782
528.34	109.46425
528.546	42.60585
528.752	5.2438
528.958	-81.27884
529.164	186.15477
529.37	317.90515
529.576	536.17817
529.782	689.55922
529.988	748.55192
530.194	799.67894
530.4	481.11831
530.606	369.03217
530.812	315.93873
531.018	184.18835
531.224	103.56498
531.43	74.06862
531.636	-8.52117
531.842	46.53869
532.048	215.65112
532.253	-51.78249
532.459	-61.61461
532.665	95.69928
532.871	66.20293
533.077	68.16935
533.282	83.90074
533.488	109.46425
533.694	19.00876
533.9	19.00876
534.105	95.69928
534.311	-49.81607
534.517	11.14307
534.722	40.63942
534.928	72.1022
535.133	70.13578
535.339	56.37081
535.545	-24.25256
535.75	62.27008
535.956	42.60585
536.161	32.77373
536.367	78.00147
536.572	186.15477
536.778	83.90074
536.983	105.5314
537.189	50.47154
537.394	-22.28613
537.6	48.50512
537.805	127.16206
538.01	91.76644
538.216	144.85987
538.421	89.80001
538.627	3.27737
538.832	66.20293
539.037	111.43067
539.242	-10.48759
539.448	95.69928
539.653	87.83359
539.858	13.10949
540.064	-28.18541
540.269	13.10949
540.474	-4.58832
540.679	152.72557
540.884	115.36352
541.089	-20.31971
541.295	1.31095
541.5	-41.95037
541.705	81.93432
541.91	56.37081
542.115	93.73286
542.32	144.85987
542.525	79.96789
542.73	148.79272
542.935	81.93432
543.14	46.53869
543.345	209.75185
543.55	3.27737
543.755	42.60585
543.96	93.73286
544.165	76.03505
544.37	52.43796
544.575	133.06133
544.78	32.77373
544.984	30.8073
545.189	13.10949
545.394	44.57227
545.599	79.96789
545.804	-59.64818
546.008	76.03505
546.213	20.97519
546.418	201.88616
546.623	81.93432
546.827	-30.15183
547.032	20.97519
547.237	28.84088
547.441	32.77373
547.646	-59.64818
547.851	156.65842
548.055	170.42338
548.26	99.63213
548.464	46.53869
548.669	-0.65547
548.874	117.32994
549.078	64.2365
549.283	-77.346
549.487	42.60585
549.692	148.79272
549.896	-77.346
550.101	-63.58103
550.305	34.74015
550.509	44.57227
550.714	119.29637
550.918	-8.52117
551.123	117.32994
551.327	127.16206
551.531	52.43796
551.736	113.3971
551.94	68.16935
552.144	11.14307
552.349	7.21022
552.553	-77.346
552.757	15.07591
552.961	20.97519
553.165	-71.44672
553.37	-67.51388
553.574	-0.65547
553.778	133.06133
553.982	123.22921
554.186	140.92703
554.39	36.70657
554.595	24.90803
554.799	36.70657
555.003	56.37081
555.207	85.86716
555.411	83.90074
555.615	144.85987
555.819	107.49782
556.023	-51.78249
556.227	154.69199
556.431	103.56498
556.635	85.86716
556.839	83.90074
557.043	119.29637
557.246	36.70657
557.45	-8.52117
557.654	70.13578
557.858	64.2365
558.062	-32.11825
558.266	56.37081
558.469	172.3898
558.673	24.90803
558.877	50.47154
559.081	72.1022
559.285	42.60585
559.488	9.17664
559.692	121.26279
559.896	91.76644
560.099	-36.0511
560.303	-87.17811
560.507	-24.25256
560.71	-16.38686
560.914	64.2365
561.117	111.43067
561.321	131.09491
561.525	107.49782
561.728	121.26279
561.932	66.20293
562.135	15.07591
562.339	87.83359
562.542	1.31095
562.746	172.3898
562.949	89.80001
563.152	109.46425
563.356	129.12848
563.559	101.59855
563.763	144.85987
563.966	54.40439
564.169	34.74015
564.373	176.32265
564.576	172.3898
564.779	64.2365
564.983	93.73286
565.186	127.16206
565.389	85.86716
565.592	50.47154
565.796	125.19564
565.999	-6.55475
566.202	164.52411
566.405	231.38251
566.608	-55.71534
566.812	-12.45402
567.015	-75.37957
567.218	76.03505
567.421	89.80001
567.624	15.07591
567.827	99.63213
568.03	123.22921
568.233	111.43067
568.436	170.42338
568.639	111.43067
568.842	40.63942
569.045	107.49782
569.248	7.21022
569.451	79.96789
569.654	396.5621
569.857	986.48918
570.06	1613.77832
570.263	2394.4485
570.465	2642.21787
570.668	2534.06457
570.871	1751.42797
571.074	1273.58703
571.277	469.31977
571.479	386.72998
571.682	282.50953
571.885	233.34894
572.088	123.22921
572.29	154.69199
572.493	109.46425
572.696	74.06862
572.898	162.55769
573.101	135.02776
573.304	-10.48759
573.506	36.70657
573.709	144.85987
573.911	13.10949
574.114	152.72557
574.317	150.75914
574.519	68.16935
574.722	91.76644
574.924	115.36352
575.127	68.16935
575.329	46.53869
575.532	76.03505
575.734	95.69928
575.936	24.90803
576.139	135.02776
576.341	28.84088
576.544	56.37081
576.746	97.66571
576.948	62.27008
577.151	70.13578
577.353	264.81171
577.555	109.46425
577.757	125.19564
577.96	-104.87593
578.162	89.80001
578.364	91.76644
578.566	-0.65547
578.769	148.79272
578.971	209.75185
579.173	144.85987
579.375	135.02776
579.577	131.09491
579.779	109.46425
579.981	107.49782
580.184	253.01317
580.386	113.3971
580.588	174.35623
580.79	24.90803
580.992	170.42338
581.194	247.1139
581.396	105.5314
581.598	121.26279
581.8	211.71828
582.002	158.62484
582.203	162.55769
582.405	146.8263
582.607	162.55769
582.809	-16.38686
583.011	121.26279
583.213	107.49782
583.415	146.8263
583.617	36.70657
583.818	164.52411
584.02	154.69199
584.222	107.49782
584.424	111.43067
584.625	79.96789
584.827	182.22192
585.029	64.2365
585.23	154.69199
585.432	113.3971
585.634	129.12848
585.835	62.27008
586.037	105.5314
586.239	95.69928
586.44	58.33723
586.642	144.85987
586.843	109.46425
587.045	32.77373
587.246	117.32994
587.448	105.5314
587.649	44.57227
587.851	105.5314
588.052	93.73286
588.254	262.84529
588.455	83.90074
588.657	115.36352
588.858	215.65112
589.059	56.37081
589.261	95.69928
589.462	52.43796
589.663	79.96789
589.865	93.73286
590.066	211.71828
590.267	34.74015
590.468	56.37081
590.67	109.46425
590.871	146.8263
591.072	123.22921
591.273	121.26279
591.475	219.58397
591.676	103.56498
591.877	127.16206
592.078	166.49053
592.279	138.9606
592.48	138.9606
592.681	152.72557
592.882	74.06862
593.083	148.79272
593.284	103.56498
593.485	127.16206
593.686	127.16206
593.887	129.12848
594.088	115.36352
594.289	15.07591
594.49	70.13578
594.691	30.8073
594.892	-0.65547
595.093	115.36352
595.294	101.59855
595.495	79.96789
595.696	123.22921
595.896	-43.91679
596.097	79.96789
596.298	62.27008
596.499	81.93432
596.7	-6.55475
596.9	158.62484
597.101	-63.58103
597.302	117.32994
597.502	58.33723
597.703	74.06862
597.904	93.73286
598.104	70.13578
598.305	74.06862
598.506	1.31095
598.706	125.19564
598.907	-6.55475
599.107	30.8073
599.308	28.84088
599.508	38.673
599.709	127.16206
599.909	180.2555
600.11	44.57227
600.31	-38.01752
600.511	178.28907
600.711	66.20293
600.912	119.29637
601.112	13.10949
601.313	-39.98395
601.513	44.57227
601.713	133.06133
601.914	113.3971
602.114	131.09491
602.314	17.04234
602.515	32.77373
602.715	190.08762
602.915	26.87446
603.115	32.77373
603.316	62.27008
603.516	66.20293
603.716	70.13578
603.916	50.47154
604.116	133.06133
604.316	-0.65547
604.517	144.85987
604.717	60.30366
604.917	50.47154
605.117	101.59855
605.317	154.69199
605.517	138.9606
605.717	111.43067
605.917	213.6847
606.117	262.84529
606.317	103.56498
606.517	99.63213
606.717	164.52411
606.917	62.27008
607.117	150.75914
607.317	58.33723
607.516	154.69199
607.716	46.53869
607.916	13.10949
608.116	140.92703
608.316	91.76644
608.516	123.22921
608.715	201.88616
608.915	119.29637
609.115	66.20293
609.315	146.8263
609.514	150.75914
609.714	83.90074
609.914	74.06862
610.114	144.85987
610.313	87.83359
610.513	136.99418
610.712	170.42338
610.912	79.96789
611.112	9.17664
611.311	129.12848
611.511	72.1022
611.71	119.29637
611.91	199.91973
612.109	199.91973
612.309	50.47154
612.508	74.06862
612.708	81.93432
612.907	52.43796
613.107	85.86716
613.306	197.95331
613.505	93.73286
613.705	217.61755
613.904	154.69199
614.104	89.80001
614.303	148.79272
614.502	101.59855
614.702	150.75914
614.901	60.30366
615.1	199.91973
615.299	91.76644
615.499	30.8073
615.698	50.47154
615.897	115.36352
616.096	209.75185
616.295	72.1022
616.494	70.13578
616.694	195.98689
616.893	17.04234
617.092	245.14748
617.291	203.85258
617.49	-41.95037
617.689	54.40439
617.888	184.18835
618.087	89.80001
618.286	72.1022
618.485	115.36352
618.684	136.99418
618.883	81.93432
619.082	-4.58832
619.281	78.00147
619.48	127.16206
619.679	87.83359
619.878	54.40439
620.076	95.69928
620.275	68.16935
620.474	140.92703
620.673	26.87446
620.872	30.8073
621.07	78.00147
621.269	91.76644
621.468	78.00147
621.667	111.43067
621.865	72.1022
622.064	46.53869
622.263	111.43067
622.461	-39.98395
622.66	38.673
622.859	54.40439
623.057	79.96789
623.256	121.26279
623.455	117.32994
623.653	170.42338
623.852	133.06133
624.05	125.19564
624.249	1.31095
624.447	146.8263
624.646	127.16206
624.844	146.8263
625.043	42.60585
625.241	58.33723
625.439	123.22921
625.638	66.20293
625.836	127.16206
626.035	30.8073
626.233	-22.28613
626.431	1.31095
626.63	-34.08468
626.828	113.3971
627.026	138.9606
627.225	66.20293
627.423	180.2555
627.621	13.10949
627.819	95.69928
628.017	-6.55475
628.216	76.03505
628.414	276.61026
628.612	95.69928
628.81	89.80001
629.008	-47.84964
629.206	24.90803
629.404	78.00147
629.602	19.00876
629.801	146.8263
629.999	103.56498
630.197	50.47154
630.395	-16.38686
630.593	148.79272
630.791	154.69199
630.989	-20.31971
631.187	125.19564
631.384	32.77373
631.582	117.32994
631.78	138.9606
631.978	83.90074
632.176	34.74015
632.374	81.93432
632.572	44.57227
632.769	52.43796
632.967	107.49782
633.165	7.21022
633.363	-24.25256
633.561	13.10949
633.758	-6.55475
633.956	87.83359
634.154	-6.55475
634.351	46.53869
634.549	68.16935
634.747	101.59855
634.944	85.86716
635.142	3.27737
635.34	-57.68176
635.537	91.76644
635.735	32.77373
635.932	60.30366
636.13	42.60585
636.327	17.04234
636.525	79.96789
636.722	156.65842
636.92	131.09491
637.117	168.45696
637.315	-75.37957
637.512	7.21022
637.709	85.86716
637.907	-57.68176
638.104	74.06862
638.302	105.5314
638.499	119.29637
638.696	74.06862
638.894	72.1022
639.091	133.06133
639.288	68.16935
639.485	-83.24527
639.683	74.06862
639.88	46.53869
640.077	105.5314
640.274	107.49782
640.471	144.85987
640.669	178.28907
640.866	32.77373
641.063	60.30366
641.26	-14.42044
641.457	101.59855
641.654	36.70657
641.851	58.33723
642.048	-10.48759
642.245	38.673
642.442	32.77373
642.639	103.56498
642.836	32.77373
643.033	28.84088
643.23	62.27008
643.427	81.93432
643.624	-20.31971
643.821	-8.52117
644.018	-45.88322
644.215	-32.11825
644.411	111.43067
644.608	-4.58832
644.805	87.83359
645.002	93.73286
645.199	56.37081
645.395	78.00147
645.592	1.31095
645.789	164.52411
645.986	28.84088
646.182	50.47154
646.379	34.74015
646.576	105.5314
646.772	70.13578
646.969	64.2365
647.166	46.53869
647.362	-14.42044
647.559	113.3971
647.755	81.93432
647.952	160.59126
648.148	-53.74891
648.345	70.13578
648.541	72.1022
648.738	15.07591
648.934	235.31536
649.131	247.1139
649.327	7.21022
649.524	121.26279
649.72	89.80001
649.916	-12.45402
650.113	7.21022
650.309	125.19564
650.506	188.12119
650.702	64.2365
650.898	26.87446
651.094	-10.48759
651.291	89.80001
651.487	79.96789
651.683	129.12848
651.879	81.93432
652.076	166.49053
652.272	85.86716
652.468	11.14307
652.664	123.22921
652.86	46.53869
653.056	46.53869
653.253	-18.35329
653.449	-8.52117
653.645	123.22921
653.841	68.16935
654.037	17.04234
654.233	68.16935
654.429	17.04234
654.625	87.83359
654.821	40.63942
655.017	50.47154
655.213	20.97519
655.409	-83.24527
655.605	-8.52117
655.8	172.3898
655.996	109.46425
656.192	44.57227
656.388	123.22921
656.584	44.57227
656.78	194.02046
656.975	48.50512
657.171	146.8263
657.367	158.62484
657.563	115.36352
657.758	36.70657
657.954	70.13578
658.15	131.09491
658.345	46.53869
658.541	115.36352
658.737	-14.42044
658.932	123.22921
659.128	-22.28613
659.324	62.27008
659.519	79.96789
659.715	54.40439
659.91	24.90803
660.106	97.66571
660.301	5.2438
660.497	180.2555
660.692	22.94161
660.888	-28.18541
661.083	13.10949
661.279	95.69928
661.474	-34.08468
661.669	79.96789
661.865	-14.42044
662.06	44.57227
662.256	42.60585
662.451	60.30366
662.646	54.40439
662.841	-36.0511
663.037	111.43067
663.232	11.14307
663.427	32.77373
663.623	-126.50659
663.818	150.75914
664.013	62.27008
664.208	144.85987
664.403	192.05404
664.598	207.78543
664.794	136.99418
664.989	52.43796
665.184	-8.52117
665.379	101.59855
665.574	85.86716
665.769	70.13578
665.964	1.31095
666.159	52.43796
666.354	13.10949
666.549	-39.98395
666.744	-14.42044
666.939	219.58397
667.134	95.69928
667.329	40.63942
667.524	5.2438
667.719	30.8073
667.913	-28.18541
668.108	109.46425
668.303	34.74015
668.498	60.30366
668.693	62.27008
668.887	56.37081
669.082	5.2438
669.277	38.673
669.472	87.83359
669.666	87.83359
669.861	66.20293
670.056	28.84088
670.251	50.47154
670.445	58.33723
670.64	11.14307
670.834	129.12848
671.029	142.89345
671.224	-4.58832
671.418	30.8073
671.613	76.03505
671.807	-20.31971
672.002	164.52411
672.196	7.21022
672.391	74.06862
672.585	-2.6219
672.78	93.73286
672.974	-167.80148
673.169	-102.9095
673.363	-97.01023
673.557	103.56498
673.752	52.43796
673.946	64.2365
674.14	13.10949
674.335	87.83359
674.529	109.46425
674.723	131.09491
674.918	3.27737
675.112	107.49782
675.306	113.3971
675.5	-38.01752
675.695	20.97519
675.889	64.2365
676.083	-26.21898
676.277	64.2365
676.471	93.73286
676.665	24.90803
676.859	26.87446
677.053	64.2365
677.248	50.47154
677.442	-28.18541
677.636	34.74015
677.83	103.56498
678.024	101.59855
678.218	40.63942
678.412	95.69928
678.606	119.29637
678.8	26.87446
678.993	-89.14454
679.187	-32.11825
679.381	22.94161
679.575	-20.31971
679.769	-43.91679
679.963	36.70657
680.157	42.60585
680.35	40.63942
680.544	56.37081
680.738	38.673
680.932	-38.01752
681.125	81.93432
681.319	-8.52117
681.513	66.20293
681.707	123.22921
681.9	-12.45402
682.094	97.66571
682.288	13.10949
682.481	11.14307
682.675	44.57227
682.868	26.87446
683.062	81.93432
683.256	40.63942
683.449	66.20293
683.643	-77.346
683.836	46.53869
684.03	28.84088
684.223	19.00876
684.416	103.56498
684.61	11.14307
684.803	24.90803
684.997	-6.55475
685.19	20.97519
685.384	38.673
685.577	-10.48759
685.77	160.59126
685.964	3.27737
686.157	87.83359
686.35	5.2438
686.543	28.84088
686.737	-65.54745
686.93	109.46425
687.123	-0.65547
687.316	17.04234
687.51	24.90803
687.703	87.83359
687.896	38.673
688.089	-0.65547
688.282	93.73286
688.475	30.8073
688.668	15.07591
688.861	-0.65547
689.054	-59.64818
689.247	107.49782
689.441	-4.58832
689.634	-0.65547
689.827	95.69928
690.019	113.3971
690.212	142.89345
690.405	9.17664
690.598	11.14307
690.791	-32.11825
690.984	40.63942
691.177	-16.38686
691.37	129.12848
691.563	24.90803
691.755	160.59126
691.948	211.71828
692.141	125.19564
692.334	11.14307
692.527	172.3898
692.719	52.43796
692.912	13.10949
693.105	5.2438
693.297	68.16935
693.49	81.93432
693.683	44.57227
693.875	76.03505
694.068	64.2365
694.261	99.63213
694.453	121.26279
694.646	60.30366
694.838	44.57227
695.031	81.93432
695.223	20.97519
695.416	56.37081
695.608	52.43796
695.801	44.57227
695.993	56.37081
696.186	56.37081
696.378	-8.52117
696.571	-41.95037
696.763	-6.55475
696.955	-63.58103
697.148	-75.37957
697.34	140.92703
697.532	-10.48759
697.725	89.80001
697.917	28.84088
698.109	83.90074
698.302	-20.31971
698.494	83.90074
698.686	46.53869
698.878	24.90803
699.07	99.63213
699.263	20.97519
699.455	83.90074
699.647	24.90803
699.839	54.40439
700.031	-34.08468
700.223	194.02046
700.415	103.56498
700.607	81.93432
700.799	-69.4803
700.991	-57.68176
701.183	79.96789
701.375	3.27737
701.567	-126.50659
701.759	97.66571
701.951	-124.54016
702.143	66.20293
702.335	5.2438
702.527	48.50512
702.719	115.36352
702.911	101.59855
703.102	-12.45402
703.294	20.97519
703.486	-16.38686
703.678	1.31095
703.87	-45.88322
704.061	-32.11825
704.253	13.10949
704.445	79.96789
704.637	-47.84964
704.828	46.53869
705.02	174.35623
705.212	72.1022
705.403	-20.31971
705.595	54.40439
705.786	-114.70804
705.978	42.60585
706.17	26.87446
706.361	56.37081
706.553	78.00147
706.744	131.09491
706.936	19.00876
707.127	136.99418
707.319	3.27737
707.51	20.97519
707.702	138.9606
707.893	-12.45402
708.084	-14.42044
708.276	123.22921
708.467	-38.01752
708.658	44.57227
708.85	24.90803
709.041	89.80001
709.232	-10.48759
709.424	3.27737
709.615	95.69928
709.806	-67.51388
709.997	93.73286
710.189	72.1022
710.38	36.70657
710.571	-126.50659
710.762	56.37081
710.953	-67.51388
711.145	-87.17811
711.336	-57.68176
711.527	3.27737
711.718	-16.38686
711.909	129.12848
712.1	186.15477
712.291	-38.01752
712.482	-73.41315
712.673	93.73286
712.864	-14.42044
713.055	1.31095
713.246	15.07591
713.437	13.10949
713.628	42.60585
713.819	-55.71534
714.009	89.80001
714.2	64.2365
714.391	68.16935
714.582	78.00147
714.773	99.63213
714.964	107.49782
715.154	140.92703
715.345	56.37081
715.536	72.1022
715.727	64.2365
715.917	1.31095
716.108	-39.98395
716.299	-43.91679
716.489	105.5314
716.68	34.74015
716.871	101.59855
717.061	76.03505
717.252	95.69928
717.442	103.56498
717.633	9.17664
717.824	-4.58832
718.014	60.30366
718.205	-4.58832
718.395	78.00147
718.586	97.66571
718.776	28.84088
718.967	79.96789
719.157	-34.08468
719.347	9.17664
719.538	-30.15183
719.728	103.56498
719.918	7.21022
720.109	154.69199
720.299	133.06133
720.489	26.87446
720.68	89.80001
720.87	52.43796
721.06	135.02776
721.251	-55.71534
721.441	74.06862
721.631	54.40439
721.821	95.69928
722.011	66.20293
722.201	40.63942
722.392	105.5314
722.582	-26.21898
722.772	50.47154
722.962	78.00147
723.152	-12.45402
723.342	42.60585
723.532	-14.42044
723.722	91.76644
723.912	-132.40586
724.102	22.94161
724.292	-14.42044
724.482	81.93432
724.672	32.77373
724.862	-28.18541
725.052	-20.31971
725.242	78.00147
725.432	9.17664
725.621	78.00147
725.811	26.87446
726.001	-36.0511
726.191	44.57227
726.381	7.21022
726.57	38.673
726.76	-16.38686
726.95	26.87446
727.14	64.2365
727.329	85.86716
727.519	123.22921
727.709	81.93432
727.898	62.27008
728.088	117.32994
728.278	89.80001
728.467	111.43067
728.657	-16.38686
728.846	160.59126
729.036	113.3971
729.225	72.1022
729.415	26.87446
729.605	62.27008
729.794	5.2438
729.983	56.37081
730.173	-24.25256
730.362	93.73286
730.552	28.84088
730.741	142.89345
730.931	133.06133
731.12	107.49782
731.309	105.5314
731.499	186.15477
731.688	231.38251
731.877	-16.38686
732.066	5.2438
732.256	54.40439
732.445	111.43067
732.634	-51.78249
732.823	68.16935
733.013	60.30366
733.202	85.86716
733.391	133.06133
733.58	-22.28613
733.769	-34.08468
733.958	40.63942
734.147	30.8073
734.337	-41.95037
734.526	50.47154
734.715	119.29637
734.904	58.33723
735.093	44.57227
735.282	20.97519
735.471	-16.38686
735.66	46.53869
735.849	78.00147
736.037	87.83359
736.226	162.55769
736.415	131.09491
736.604	54.40439
736.793	136.99418
736.982	54.40439
737.171	-77.346
737.359	24.90803
737.548	-0.65547
737.737	-22.28613
737.926	-12.45402
738.115	-20.31971
738.303	46.53869
738.492	107.49782
738.681	54.40439
738.869	54.40439
739.058	89.80001
739.247	89.80001
739.435	103.56498
739.624	64.2365
739.812	54.40439
740.001	93.73286
740.19	184.18835
740.378	70.13578
740.567	176.32265
740.755	121.26279
740.944	113.3971
741.132	121.26279
741.321	54.40439
741.509	85.86716
741.697	103.56498
741.886	131.09491
742.074	101.59855
742.263	174.35623
742.451	78.00147
742.639	101.59855
742.828	56.37081
743.016	123.22921
743.204	109.46425
743.392	48.50512
743.581	180.2555
743.769	-16.38686
743.957	233.34894
744.145	156.65842
744.333	290.37522
744.522	115.36352
744.71	44.57227
744.898	253.01317
745.086	315.93873
745.274	241.21463
745.462	209.75185
745.65	158.62484
745.838	302.17376
746.026	235.31536
746.214	87.83359
746.402	107.49782
746.59	172.3898
746.778	48.50512
746.966	209.75185
747.154	85.86716
747.342	123.22921
747.53	154.69199
747.718	203.85258
747.906	221.55039
748.093	182.22192
748.281	13.10949
748.469	170.42338
748.657	131.09491
748.845	34.74015
749.032	93.73286
749.22	135.02776
749.408	28.84088
749.596	174.35623
749.783	60.30366
749.971	42.60585
750.159	121.26279
750.346	20.97519
750.534	22.94161
750.721	115.36352
750.909	83.90074
751.097	-10.48759
751.284	60.30366
751.472	72.1022
751.659	186.15477
751.847	20.97519
752.034	-22.28613
752.222	142.89345
752.409	-24.25256
752.597	119.29637
752.784	72.1022
752.971	-36.0511
753.159	30.8073
753.346	135.02776
753.533	-39.98395
753.721	50.47154
753.908	95.69928
754.095	46.53869
754.283	85.86716
754.47	-41.95037
754.657	13.10949
754.844	97.66571
755.032	28.84088
755.219	34.74015
755.406	107.49782
755.593	32.77373
755.78	36.70657
755.967	162.55769
756.155	28.84088
756.342	9.17664
756.529	7.21022
756.716	28.84088
756.903	-81.27884
757.09	83.90074
757.277	7.21022
757.464	52.43796
757.651	138.9606
757.838	32.77373
758.025	-26.21898
758.212	115.36352
758.399	56.37081
758.585	-30.15183
758.772	-12.45402
758.959	72.1022
759.146	162.55769
759.333	15.07591
759.52	105.5314
759.706	-22.28613
759.893	85.86716
760.08	68.16935
760.267	135.02776
760.453	64.2365
760.64	54.40439
760.827	-65.54745
761.013	56.37081
761.2	-36.0511
761.387	62.27008
761.573	20.97519
761.76	91.76644
761.946	11.14307
762.133	52.43796
762.32	5.2438
762.506	-128.47301
762.693	-6.55475
762.879	26.87446
763.066	36.70657
763.252	135.02776
763.439	60.30366
763.625	93.73286
763.811	87.83359
763.998	20.97519
764.184	19.00876
764.371	44.57227
764.557	3.27737
764.743	-8.52117
764.929	72.1022
765.116	115.36352
765.302	60.30366
765.488	-8.52117
765.675	119.29637
765.861	11.14307
766.047	103.56498
766.233	-34.08468
766.419	44.57227
766.605	-51.78249
766.792	48.50512
766.978	30.8073
767.164	60.30366
767.35	-34.08468
767.536	-55.71534
767.722	30.8073
767.908	91.76644
768.094	-2.6219
768.28	1.31095
768.466	-30.15183
768.652	26.87446
768.838	44.57227
769.024	158.62484
769.21	3.27737
769.396	-20.31971
769.582	101.59855
769.767	111.43067
769.953	-0.65547
770.139	81.93432
770.325	9.17664
770.511	15.07591
770.697	-0.65547
770.882	-6.55475
771.068	-59.64818
771.254	97.66571
771.44	79.96789
771.625	76.03505
771.811	-8.52117
771.997	44.57227
772.182	-75.37957
772.368	-67.51388
772.553	40.63942
772.739	101.59855
772.925	-53.74891
773.11	28.84088
773.296	-10.48759
773.481	46.53869
773.667	58.33723
773.852	-8.52117
774.038	170.42338
774.223	123.22921
774.409	36.70657
774.594	13.10949
774.779	-22.28613
774.965	-10.48759
775.15	36.70657
775.335	-14.42044
775.521	146.8263
775.706	42.60585
775.891	36.70657
776.077	72.1022
776.262	121.26279
776.447	119.29637
776.632	40.63942
776.818	17.04234
777.003	168.45696
777.188	-6.55475
777.373	38.673
777.558	38.673
777.743	125.19564
777.929	38.673
778.114	58.33723
778.299	117.32994
778.484	148.79272
778.669	83.90074
778.854	64.2365
779.039	-18.35329
779.224	146.8263
779.409	178.28907
779.594	36.70657
779.779	70.13578
779.964	87.83359
780.149	103.56498
780.333	146.8263
780.518	79.96789
780.703	99.63213
780.888	125.19564
781.073	38.673
781.258	83.90074
781.442	160.59126
781.627	178.28907
781.812	195.98689
781.997	197.95331
782.181	119.29637
782.366	162.55769
782.551	201.88616
782.735	140.92703
782.92	148.79272
783.105	211.71828
783.289	178.28907
783.474	237.28178
783.658	351.33435
783.843	404.42779
784.028	190.08762
784.212	190.08762
784.397	266.77814
784.581	138.9606
784.766	276.61026
784.95	156.65842
785.134	243.18105
785.319	138.9606
785.503	331.67012
785.688	223.51682
785.872	302.17376
786.056	310.03946
786.241	284.47595
786.425	219.58397
786.609	253.01317
786.794	372.96501
786.978	455.55481
787.162	494.88328
787.346	463.4205
787.531	565.67453
787.715	656.13001
787.899	585.33876
788.083	555.84241
788.267	732.82054
788.451	705.29061
788.636	780.0147
788.82	901.93297
789.004	1071.0454
789.188	1187.06439
789.372	1236.22498
789.556	1450.56516
789.74	1613.77832
789.924	1552.81919
790.108	1643.27467
790.292	1828.11849
790.476	1712.0995
790.66	1741.59585
790.844	1615.74474
791.028	1641.30825
791.211	1509.55787
791.395	1401.40457
791.579	1354.2104
791.763	1208.69505
791.947	1153.63519
792.13	1053.34759
792.314	809.51106
792.498	1037.6162
792.682	898.00012
792.865	1031.71693
793.049	984.52276
793.233	1076.94467
793.417	1055.31401
793.6	986.48918
793.784	1128.07168
793.967	1277.51988
794.151	1413.20311
794.335	1603.9462
794.518	1737.66301
794.702	1869.41339
794.885	2022.79443
795.069	1948.07033
795.252	2164.37693
795.436	2193.87329
795.619	2258.76527
795.803	2111.28349
795.986	2101.45138
796.169	2005.09662
796.353	2009.02947
796.536	1788.79002
796.72	1611.81189
796.903	1568.55057
797.086	1364.04252
797.27	1210.66148
797.453	1373.87464
797.636	1092.67606
797.819	1334.54616
798.003	1143.80307
798.186	1021.88481
798.369	1035.64977
798.552	976.65706
798.735	996.3213
798.918	1021.88481
799.102	1128.07168
799.285	1039.58262
799.468	1053.34759
799.651	1039.58262
799.834	1084.81036
800.017	1187.06439
800.2	1218.52717
800.383	1287.352
800.566	1277.51988
800.749	1137.9038
800.932	1220.49359
801.115	1307.01623
801.298	1153.63519
801.481	1375.84106
801.664	1244.09068
801.847	1450.56516
802.029	1478.09509
802.212	1480.06151
802.395	1625.57686
802.578	1761.26009
802.761	1651.14037
802.943	1678.6703
803.126	1721.93162
803.309	1786.8236
803.492	1755.36082
803.674	1997.23092
803.857	2091.61926
804.04	1822.21922
804.222	1930.37252
804.405	1824.18565
804.588	1700.30096
804.77	1824.18565
804.953	1653.10679
805.135	1655.07321
805.318	1782.89075
805.5	1690.46884
805.683	1609.84547
805.865	1592.14766
806.048	1511.52429
806.23	1491.86005
806.413	1678.6703
806.595	1771.09221
806.778	1611.81189
806.96	1576.41627
807.142	1657.03964
807.325	1651.14037
807.507	1434.83377
807.689	1405.33741
807.872	1312.9155
808.054	1338.47901
808.236	1307.01623
808.418	1086.77679
808.601	1189.03082
808.783	992.38845
808.965	896.0337
809.147	888.168
809.329	785.91397
809.512	1163.46731
809.694	872.43661
809.876	750.51835
810.058	778.04828
810.24	752.48477
810.422	642.36505
810.604	642.36505
810.786	734.78696
810.968	618.76797
811.15	638.4322
811.332	736.75338
811.514	528.31248
811.696	492.91685
811.878	603.03658
812.06	546.01029
812.242	575.50665
812.424	463.4205
812.605	335.60296
812.787	445.72269
812.969	487.01758
813.151	506.68182
813.333	451.62196
813.514	355.2672
813.696	300.20734
813.878	355.2672
814.06	429.9913
814.241	392.62925
814.423	388.6964
814.605	337.56939
814.786	412.29349
814.968	264.81171
815.149	253.01317
815.331	223.51682
815.513	347.40151
815.694	308.07303
815.876	272.67741
816.057	192.05404
816.239	237.28178
816.42	447.68911
816.602	180.2555
816.783	205.81901
816.965	213.6847
817.146	353.30078
817.327	254.9796
817.509	203.85258
817.69	184.18835
817.872	258.91244
818.053	111.43067
818.234	109.46425
818.415	148.79272
818.597	266.77814
818.778	138.9606
818.959	121.26279
819.14	243.18105
819.322	178.28907
819.503	245.14748
819.684	146.8263
819.865	184.18835
820.046	247.1139
820.227	178.28907
820.409	329.70369
820.59	315.93873
820.771	52.43796
820.952	274.64383
821.133	355.2672
821.314	306.10661
821.495	313.9723
821.676	268.74456
821.857	363.1329
822.038	369.03217
822.219	437.85699
822.4	225.48324
822.58	392.62925
822.761	451.62196
822.942	347.40151
823.123	394.59567
823.304	461.45408
823.485	443.75626
823.665	518.48036
823.846	404.42779
824.027	538.1446
824.208	445.72269
824.388	591.23804
824.569	494.88328
824.75	445.72269
824.931	520.44678
825.111	485.05116
825.292	424.09203
825.472	327.73727
825.653	390.66283
825.834	357.23362
826.014	280.5431
826.195	331.67012
826.375	308.07303
826.556	308.07303
826.736	313.9723
826.917	260.87887
827.097	251.04675
827.278	219.58397
827.458	235.31536
827.638	384.76356
827.819	219.58397
827.999	288.4088
828.18	247.1139
828.36	266.77814
828.54	327.73727
828.721	312.00588
828.901	256.94602
829.081	207.78543
829.261	239.24821
829.442	205.81901
829.622	343.46866
829.802	197.95331
829.982	398.52852
830.162	197.95331
830.343	290.37522
830.523	213.6847
830.703	148.79272
830.883	209.75185
831.063	140.92703
831.243	186.15477
831.423	223.51682
831.603	233.34894
831.783	119.29637
831.963	164.52411
832.143	182.22192
832.323	150.75914
832.503	154.69199
832.683	74.06862
832.863	317.90515
833.043	219.58397
833.223	81.93432
833.402	40.63942
833.582	50.47154
833.762	125.19564
833.942	103.56498
834.122	197.95331
834.301	81.93432
834.481	276.61026
834.661	199.91973
834.841	46.53869
835.02	140.92703
835.2	85.86716
835.38	105.5314
835.559	93.73286
835.739	103.56498
835.918	17.04234
836.098	174.35623
836.278	76.03505
836.457	50.47154
836.637	46.53869
836.816	74.06862
836.996	121.26279
837.175	79.96789
837.355	180.2555
837.534	186.15477
837.714	205.81901
837.893	91.76644
838.072	101.59855
838.252	194.02046
838.431	154.69199
838.61	156.65842
838.79	64.2365
838.969	148.79272
839.148	103.56498
839.328	162.55769
839.507	174.35623
839.686	211.71828
839.865	133.06133
840.045	121.26279
840.224	72.1022
840.403	211.71828
840.582	239.24821
840.761	136.99418
840.94	237.28178
841.119	219.58397
841.298	115.36352
841.478	133.06133
841.657	115.36352
841.836	136.99418
842.015	81.93432
842.194	127.16206
842.373	123.22921
842.552	237.28178
842.73	111.43067
842.909	148.79272
843.088	144.85987
843.267	166.49053
843.446	180.2555
843.625	129.12848
843.804	152.72557
843.983	168.45696
844.161	22.94161
844.34	213.6847
844.519	174.35623
844.698	231.38251
844.876	125.19564
845.055	131.09491
845.234	274.64383
845.413	188.12119
845.591	199.91973
845.77	156.65842
845.948	347.40151
846.127	363.1329
846.306	258.91244
846.484	74.06862
846.663	162.55769
846.841	97.66571
847.02	168.45696
847.198	264.81171
847.377	229.41609
847.555	190.08762
847.734	129.12848
847.912	197.95331
848.091	249.08033
848.269	231.38251
848.447	192.05404
848.626	205.81901
848.804	274.64383
848.982	394.59567
849.161	315.93873
849.339	343.46866
849.517	172.3898
849.696	233.34894
849.874	192.05404
850.052	369.03217
850.23	304.14019
850.408	455.55481
850.587	347.40151
850.765	386.72998
850.943	414.25991
851.121	367.06574
851.299	428.02487
851.477	372.96501
851.655	428.02487
851.833	485.05116
852.011	536.17817
852.189	500.78255
852.367	589.27161
852.545	575.50665
852.723	469.31977
852.901	581.40592
853.079	461.45408
853.257	620.73439
853.435	459.48765
853.613	630.56651
853.791	640.39863
853.968	693.49206
854.146	540.11102
854.324	693.49206
854.502	766.24974
854.68	780.0147
854.857	793.77967
855.035	724.95484
855.213	856.70522
855.39	860.63807
855.568	821.3096
855.746	738.71981
855.923	1045.48189
856.101	1104.4746
856.279	1065.14613
856.456	1074.97825
856.634	964.85852
856.811	1067.11255
856.989	1212.6279
857.166	1537.0878
857.344	1464.33012
857.521	1456.46443
857.699	1617.71117
857.876	1560.68488
858.054	1896.94332
858.231	2020.82801
858.409	2323.65724
858.586	2416.07916
858.763	2716.94197
858.941	2870.32301
859.118	3196.74933
859.295	3694.25451
859.473	4136.69982
859.65	4838.71306
859.827	5373.58028
860.004	6164.08258
860.182	6852.33084
860.359	7680.19519
860.536	8171.80109
860.713	8828.58658
860.89	9330.0246
861.067	9807.86554
861.245	9408.68155
861.422	9042.92676
861.599	8863.98221
861.776	8156.0697
861.953	7784.41564
862.13	7200.38782
862.307	6687.15126
862.484	6046.09716
862.661	5798.32778
862.838	5173.00507
863.015	4773.82108
863.192	4388.40205
863.369	4020.68083
863.545	3951.856
863.722	3721.78444
863.899	3586.10121
864.076	3883.03118
864.253	3664.75815
864.43	4018.71441
864.606	4073.77427
864.783	4262.55093
864.96	4347.10715
865.137	4246.81955
865.313	4461.15972
865.49	4221.25604
865.667	4290.08087
865.843	3867.29979
866.02	4028.54652
866.197	3774.87788
866.373	3560.5377
866.55	3491.71288
866.726	3493.6793
866.903	3153.48801
867.079	3007.97266
867.256	2950.94638
867.432	3049.26756
867.609	2854.59162
867.785	2783.80037
867.962	2791.66607
868.138	3011.90551
868.315	2793.63249
868.491	2842.79308
868.667	2671.71423
868.844	2886.0544
869.02	3002.07339
869.196	3114.15954
869.373	3253.77562
869.549	3273.43985
869.725	3580.20194
869.902	3336.36541
870.078	3631.32895
870.254	3757.18006
870.43	3888.93045
870.606	3865.33336
870.783	4002.98302
870.959	3792.57569
871.135	3977.41951
871.311	3613.63114
871.487	3670.65742
871.663	3472.04864
871.839	3346.19753
872.015	3234.11138
872.191	3169.2194
872.367	2982.40916
872.543	2956.84565
872.719	2791.66607
872.895	2559.62808
873.071	2681.54634
873.247	2642.21787
873.423	2636.3186
873.599	2528.1653
873.775	2581.25874
873.95	2510.46749
874.126	2471.13902
874.302	2602.8894
874.478	2532.09815
874.654	2394.4485
874.829	2288.26162
875.005	2331.52294
875.181	2388.54922
875.357	2329.55652
875.532	2252.86599
875.708	2294.16089
875.884	2431.81054
876.059	2246.96672
876.235	2429.84412
876.41	2429.84412
876.586	2608.78867
876.761	2634.35218
876.937	2852.6252
877.113	3076.79749
877.288	3381.59315
877.464	3430.75374
877.639	3786.67642
877.814	4008.88229
877.99	4156.36406
878.165	4274.34948
878.341	4671.56705
878.516	4644.03712
878.691	4606.67507
878.867	4724.66049
879.042	4624.37288
879.217	4545.71594
879.393	4319.57722
879.568	4244.85312
879.743	3977.41951
879.919	3822.07204
880.094	3774.87788
880.269	3637.22822
880.444	3544.80631
880.619	3430.75374
880.794	3177.0851
880.97	3289.17124
881.145	3159.38728
881.32	2895.88652
881.495	2968.64419
881.67	2827.06169
881.845	2642.21787
882.02	2671.71423
882.195	2716.94197
882.37	2490.80325
882.545	2811.3303
882.72	2433.77697
882.895	2652.04999
883.07	2429.84412
883.245	2581.25874
883.42	2473.10544
883.594	2449.50836
883.769	2288.26162
883.944	2150.61197
884.119	2123.08204
884.294	2064.08933
884.469	1973.63384
884.643	2014.92874
884.818	1881.21193
884.993	2014.92874
885.168	1710.13308
885.342	1686.53599
885.517	1631.47613
885.692	1568.55057
885.866	1482.02794
886.041	1491.86005
886.215	1249.98995
886.39	1277.51988
886.565	1192.96366
886.739	1354.2104
886.914	1200.82936
887.088	1076.94467
887.263	919.63078
887.437	956.99283
887.612	931.42932
887.786	842.94026
887.96	850.80595
888.135	764.28331
888.309	787.8804
888.484	923.56363
888.658	691.52564
888.832	660.06286
889.007	762.31689
889.181	597.13731
889.355	608.93585
889.529	744.61908
889.704	496.8497
889.878	648.26432
890.052	441.78984
890.226	630.56651
890.401	516.51394
890.575	656.13001
890.749	628.60008
890.923	597.13731
891.097	443.75626
891.271	406.39421
891.445	363.1329
891.619	487.01758
891.793	575.50665
891.967	392.62925
892.141	445.72269
892.315	510.61467
892.489	388.6964
892.663	428.02487
892.837	429.9913
893.011	469.31977
893.185	374.93144
893.359	400.49494
893.533	353.30078
893.706	410.32706
893.88	339.53581
894.054	406.39421
894.228	365.09932
894.402	463.4205
894.575	384.76356
894.749	431.95772
894.923	355.2672
895.097	384.76356
895.27	420.15918
895.444	280.5431
895.617	284.47595
895.791	372.96501
895.965	396.5621
896.138	329.70369
896.312	378.86428
896.485	282.50953
896.659	333.63654
896.832	388.6964
897.006	471.28619
897.179	286.44237
897.353	227.44967
897.526	245.14748
897.7	278.57668
897.873	329.70369
898.047	160.59126
898.22	380.83071
898.393	353.30078
898.567	221.55039
898.74	274.64383
898.913	355.2672
899.087	292.34164
899.26	355.2672
899.433	329.70369
899.606	335.60296
899.78	494.88328
899.953	290.37522
900.126	361.16647
900.299	547.97672
900.472	544.04387
900.645	542.07744
900.818	406.39421
900.992	512.58109
901.165	524.37963
901.338	546.01029
901.511	496.8497
901.684	626.63366
901.857	502.74897
902.03	571.5738
902.203	528.31248
902.376	620.73439
902.549	469.31977
902.721	471.28619
902.894	540.11102
903.067	490.95043
903.24	479.15189
903.413	394.59567
903.586	443.75626
903.759	555.84241
903.931	510.61467
904.104	404.42779
904.277	365.09932
904.45	587.30519
904.622	563.7081
904.795	453.58838
904.968	498.81613
905.14	317.90515
905.313	461.45408
905.486	485.05116
905.658	441.78984
905.831	528.31248
906.003	551.90956
906.176	437.85699
906.348	532.24533
906.521	510.61467
906.693	565.67453
906.866	573.54022
907.038	485.05116
907.211	481.11831
907.383	504.7154
907.556	416.22633
907.728	239.24821
907.9	418.19276
908.073	278.57668
908.245	274.64383
908.417	290.37522
908.59	266.77814
908.762	239.24821
908.934	195.98689
909.107	256.94602
909.279	282.50953
909.451	172.3898
909.623	174.35623
909.795	205.81901
909.967	174.35623
910.14	190.08762
910.312	227.44967
910.484	172.3898
910.656	144.85987
910.828	180.2555
911	176.32265
911.172	172.3898
911.344	140.92703
911.516	62.27008
911.688	123.22921
911.86	-65.54745
912.032	72.1022
912.204	85.86716
912.376	107.49782
912.548	28.84088
912.72	166.49053
912.891	66.20293
913.063	20.97519
913.235	40.63942
913.407	56.37081
913.579	-12.45402
913.75	-4.58832
913.922	99.63213
914.094	11.14307
914.266	58.33723
914.437	46.53869
914.609	87.83359
914.781	48.50512
914.952	72.1022
915.124	182.22192
915.296	131.09491
915.467	101.59855
915.639	26.87446
915.81	199.91973
915.982	70.13578
916.153	-18.35329
916.325	-14.42044
916.496	54.40439
916.668	-79.31242
916.839	68.16935
917.011	154.69199
917.182	-16.38686
917.353	133.06133
917.525	105.5314
917.696	1.31095
917.867	95.69928
918.039	13.10949
918.21	42.60585
918.381	-28.18541
918.553	101.59855
918.724	-67.51388
918.895	99.63213
919.066	79.96789
919.237	58.33723
919.409	-91.11096
919.58	-71.44672
919.751	115.36352
919.922	89.80001
920.093	19.00876
920.264	17.04234
920.435	-79.31242
920.606	103.56498
920.777	46.53869
920.948	17.04234
921.119	188.12119
921.29	89.80001
921.461	30.8073
921.632	-24.25256
921.803	-59.64818
921.974	-4.58832
922.145	50.47154
922.316	54.40439
922.487	24.90803
922.657	3.27737
922.828	-16.38686
922.999	-2.6219
923.17	89.80001
923.341	125.19564
923.511	113.3971
923.682	135.02776
923.853	64.2365
924.023	-38.01752
924.194	83.90074
924.365	34.74015
924.535	-118.64089
924.706	-118.64089
924.877	-8.52117
925.047	-34.08468
925.218	15.07591
925.388	1.31095
925.559	-49.81607
925.729	131.09491
925.9	20.97519
926.07	5.2438
926.241	34.74015
926.411	32.77373
926.582	9.17664
926.752	127.16206
926.922	-14.42044
927.093	68.16935
927.263	26.87446
927.433	74.06862
927.604	50.47154
927.774	58.33723
927.944	-30.15183
928.115	7.21022
928.285	54.40439
928.455	105.5314
928.625	-77.346
928.795	-12.45402
928.966	-18.35329
929.136	-0.65547
929.306	-49.81607
929.476	-4.58832
929.646	-22.28613
929.816	-49.81607
929.986	-32.11825
930.156	9.17664
930.326	-156.00294
930.496	11.14307
930.666	20.97519
930.836	9.17664
931.006	50.47154
931.176	42.60585
931.346	-4.58832
931.516	87.83359
931.686	101.59855
931.856	72.1022
932.025	-156.00294
932.195	38.673
932.365	58.33723
932.535	1.31095
932.705	136.99418
932.874	74.06862
933.044	-95.04381
933.214	81.93432
933.384	-20.31971
933.553	28.84088
933.723	-18.35329
933.893	123.22921
934.062	-93.07738
934.232	64.2365
934.401	32.77373
934.571	13.10949
934.74	72.1022
934.91	-36.0511
935.079	121.26279
935.249	19.00876
935.418	162.55769
935.588	38.673
935.757	-41.95037
935.927	56.37081
936.096	-16.38686
936.266	13.10949
936.435	-22.28613
936.604	17.04234
936.774	-98.97666
936.943	-34.08468
937.112	5.2438
937.282	93.73286
937.451	30.8073
937.62	42.60585
937.789	9.17664
937.958	79.96789
938.128	1.31095
938.297	150.75914
938.466	13.10949
938.635	-24.25256
938.804	-102.9095
938.973	42.60585
939.142	85.86716
939.312	115.36352
939.481	101.59855
939.65	32.77373
939.819	-34.08468
939.988	-41.95037
940.157	52.43796
940.326	-47.84964
940.494	58.33723
940.663	-6.55475
940.832	32.77373
941.001	-14.42044
941.17	-16.38686
941.339	34.74015
941.508	85.86716
941.677	-8.52117
941.845	22.94161
942.014	-97.01023
942.183	150.75914
942.352	-59.64818
942.52	-20.31971
942.689	-16.38686
942.858	-6.55475
943.026	74.06862
943.195	32.77373
943.364	113.3971
943.532	-10.48759
943.701	-75.37957
943.869	-53.74891
944.038	46.53869
944.206	101.59855
944.375	32.77373
944.544	-118.64089
944.712	62.27008
944.88	11.14307
945.049	81.93432
945.217	34.74015
945.386	-6.55475
945.554	64.2365
945.723	-20.31971
945.891	-4.58832
946.059	-14.42044
946.228	54.40439
946.396	-20.31971
946.564	-20.31971
946.732	-53.74891
946.901	-20.31971
947.069	-83.24527
947.237	-39.98395
947.405	117.32994
947.573	26.87446
947.742	66.20293
947.91	-73.41315
948.078	44.57227
948.246	-30.15183
948.414	40.63942
948.582	26.87446
948.75	32.77373
948.918	-89.14454
949.086	58.33723
949.254	109.46425
949.422	-22.28613
949.59	74.06862
949.758	-49.81607
949.926	-112.74162
950.094	-30.15183
950.262	93.73286
950.43	-118.64089
950.598	-89.14454
950.765	-22.28613
950.933	22.94161
951.101	72.1022
951.269	36.70657
951.437	-22.28613
951.604	-12.45402
951.772	136.99418
951.94	19.00876
952.107	48.50512
952.275	26.87446
952.443	-89.14454
952.61	-14.42044
952.778	-73.41315
952.946	-12.45402
953.113	-69.4803
953.281	79.96789
953.448	54.40439
953.616	9.17664
953.783	89.80001
953.951	-39.98395
954.118	58.33723
954.286	9.17664
954.453	117.32994
954.621	-61.61461
954.788	24.90803
954.955	95.69928
955.123	19.00876
955.29	-0.65547
955.457	50.47154
955.625	46.53869
955.792	-24.25256
955.959	28.84088
956.126	70.13578
956.294	99.63213
956.461	-67.51388
956.628	-0.65547
956.795	-144.2044
956.962	40.63942
957.13	119.29637
957.297	28.84088
957.464	-20.31971
957.631	-18.35329
957.798	54.40439
957.965	-20.31971
958.132	79.96789
958.299	-36.0511
958.466	44.57227
958.633	-0.65547
958.8	-91.11096
958.967	58.33723
959.134	-83.24527
959.301	72.1022
959.468	-10.48759
959.634	152.72557
959.801	56.37081
959.968	22.94161
960.135	81.93432
960.302	-6.55475
960.469	5.2438
960.635	-36.0511
960.802	89.80001
960.969	-49.81607
961.135	34.74015
961.302	127.16206
961.469	30.8073
961.635	91.76644
961.802	24.90803
961.969	5.2438
962.135	15.07591
962.302	78.00147
962.468	52.43796
962.635	22.94161
962.802	-22.28613
962.968	-95.04381
963.135	121.26279
963.301	56.37081
963.467	91.76644
963.634	101.59855
963.8	13.10949
963.967	-10.48759
964.133	-24.25256
964.299	17.04234
964.466	11.14307
964.632	5.2438
964.798	40.63942
964.965	46.53869
965.131	-32.11825
965.297	-20.31971
965.463	36.70657
965.63	-51.78249
965.796	38.673
965.962	22.94161
966.128	5.2438
966.294	56.37081
966.46	3.27737
966.627	101.59855
966.793	5.2438
966.959	-49.81607
967.125	26.87446
967.291	-6.55475
967.457	-14.42044
967.623	60.30366
967.789	99.63213
967.955	-108.80877
968.121	-28.18541
968.287	54.40439
968.452	-2.6219
968.618	-49.81607
968.784	-0.65547
968.95	42.60585
969.116	-20.31971
969.282	60.30366
969.447	-132.40586
969.613	160.59126
969.779	-55.71534
969.945	15.07591
970.11	13.10949
970.276	-59.64818
970.442	-30.15183
970.607	117.32994
970.773	-152.07009
970.939	-61.61461
971.104	150.75914
971.27	7.21022
971.436	1.31095
971.601	28.84088
971.767	54.40439
971.932	-32.11825
972.098	24.90803
972.263	62.27008
972.429	-26.21898
972.594	-67.51388
972.759	148.79272
972.925	34.74015
973.09	54.40439
973.256	1.31095
973.421	-4.58832
973.586	3.27737
973.752	7.21022
973.917	-22.28613
974.082	50.47154
974.247	-12.45402
974.413	-39.98395
974.578	60.30366
974.743	-28.18541
974.908	3.27737
975.074	68.16935
975.239	-30.15183
975.404	64.2365
975.569	97.66571
975.734	-38.01752
975.899	-34.08468
976.064	-24.25256
976.229	19.00876
976.394	-65.54745
976.559	3.27737
976.724	119.29637
976.889	54.40439
977.054	20.97519
977.219	1.31095
977.384	-71.44672
977.549	-79.31242
977.714	461.45408
977.879	-89.14454
978.043	-12.45402
978.208	62.27008
978.373	79.96789
978.538	13.10949
978.703	-2.6219
978.867	70.13578
979.032	-36.0511
979.197	22.94161
979.362	5.2438
979.526	-53.74891
979.691	-14.42044
979.856	-59.64818
980.02	36.70657
980.185	138.9606
980.349	-118.64089
980.514	70.13578
980.678	-28.18541
980.843	107.49782
981.007	1.31095
981.172	62.27008
981.336	-30.15183
981.501	-12.45402
981.665	79.96789
981.83	-32.11825
981.994	17.04234
982.159	-55.71534
982.323	-39.98395
982.487	-32.11825
982.652	46.53869
982.816	-32.11825
982.98	19.00876
983.144	-12.45402
983.309	50.47154
983.473	78.00147
983.637	17.04234
983.801	24.90803
983.966	-18.35329
984.13	22.94161
984.294	-32.11825
984.458	-39.98395
984.622	85.86716
984.786	-45.88322
984.95	64.2365
985.114	34.74015
985.278	26.87446
985.442	-36.0511
985.606	-134.37228
985.77	-12.45402
985.934	52.43796
986.098	42.60585
986.262	36.70657
986.426	-14.42044
986.59	17.04234
986.754	-14.42044
986.918	17.04234
987.082	-14.42044
987.245	-122.57374
987.409	58.33723
987.573	-20.31971
987.737	46.53869
987.9	109.46425
988.064	26.87446
988.228	95.69928
988.392	-59.64818
988.555	-12.45402
988.719	-6.55475
988.882	-0.65547
989.046	78.00147
989.21	36.70657
989.373	-53.74891
989.537	121.26279
989.7	60.30366
989.864	50.47154
990.027	-53.74891
990.191	93.73286
990.354	-38.01752
990.518	-10.48759
990.681	-41.95037
990.845	15.07591
991.008	-16.38686
991.171	85.86716
991.335	44.57227
991.498	-49.81607
991.661	-26.21898
991.825	38.673
991.988	28.84088
992.151	-85.21169
992.314	-65.54745
992.478	68.16935
992.641	17.04234
992.804	-6.55475
992.967	-8.52117
993.13	-108.80877
993.294	131.09491
993.457	-12.45402
993.62	-4.58832
993.783	-20.31971
993.946	-8.52117
994.109	-6.55475
994.272	-32.11825
994.435	-51.78249
994.598	184.18835
994.761	7.21022
994.924	19.00876
995.087	81.93432
995.25	-32.11825
995.413	89.80001
995.575	-18.35329
995.738	-30.15183
995.901	-59.64818
996.064	36.70657
996.227	-26.21898
996.39	32.77373
996.552	-12.45402
996.715	123.22921
996.878	-69.4803
997.041	-18.35329
997.203	85.86716
997.366	42.60585
997.529	123.22921
997.691	38.673
997.854	-81.27884
998.016	-10.48759
998.179	109.46425
998.342	95.69928
998.504	64.2365
998.667	-18.35329
998.829	28.84088
998.992	36.70657
999.154	-12.45402
999.317	-102.9095
999.479	-26.21898
999.641	-104.87593
999.804	40.63942
999.966	46.53869
1000.128	26.87446
1000.291	60.30366
1000.453	52.43796
1000.615	46.53869
1000.778	-0.65547
1000.94	-36.0511
1001.102	68.16935
1001.264	20.97519
1001.427	70.13578
1001.589	-89.14454
1001.751	36.70657
1001.913	-116.67447
1002.075	-6.55475
1002.237	172.3898
1002.4	87.83359
1002.562	127.16206
1002.724	81.93432
1002.886	38.673
1003.048	-18.35329
1003.21	34.74015
1003.372	-75.37957
1003.534	22.94161
1003.696	34.74015
1003.858	48.50512
1004.02	-20.31971
1004.181	83.90074
1004.343	3.27737
1004.505	-32.11825
1004.667	-102.9095
1004.829	117.32994
1004.991	79.96789
1005.152	91.76644
1005.314	68.16935
1005.476	42.60585
1005.638	-38.01752
1005.799	-32.11825
1005.961	115.36352
1006.123	-81.27884
1006.284	48.50512
1006.446	-16.38686
1006.608	48.50512
1006.769	52.43796
1006.931	1.31095
1007.092	-134.37228
1007.254	60.30366
1007.416	-36.0511
1007.577	-2.6219
1007.739	-63.58103
1007.9	-12.45402
1008.061	-6.55475
1008.223	11.14307
1008.384	-49.81607
1008.546	-75.37957
1008.707	-39.98395
1008.868	-87.17811
1009.03	70.13578
1009.191	56.37081
1009.352	78.00147
1009.514	101.59855
1009.675	-30.15183
1009.836	-12.45402
1009.997	-67.51388
1010.159	56.37081
1010.32	-116.67447
1010.481	19.00876
1010.642	-55.71534
1010.803	-10.48759
1010.964	30.8073
1011.126	-28.18541
1011.287	15.07591
1011.448	99.63213
1011.609	-53.74891
1011.77	-57.68176
1011.931	-24.25256
1012.092	62.27008
1012.253	-81.27884
1012.414	-43.91679
1012.575	76.03505
1012.736	-67.51388
1012.896	-57.68176
1013.057	1.31095
1013.218	-65.54745
1013.379	1.31095
1013.54	-144.2044
1013.701	52.43796
1013.861	101.59855
1014.022	-116.67447
1014.183	34.74015
1014.344	24.90803
1014.504	-14.42044
1014.665	-6.55475
1014.826	54.40439
1014.986	70.13578
1015.147	3.27737
1015.308	105.5314
1015.468	7.21022
1015.629	156.65842
1015.789	-120.60732
1015.95	-38.01752
1016.111	-43.91679
1016.271	54.40439
1016.432	-36.0511
1016.592	-30.15183
1016.752	133.06133
1016.913	95.69928
1017.073	9.17664
1017.234	13.10949
1017.394	42.60585
1017.554	9.17664
1017.715	-8.52117
1017.875	-36.0511
1018.035	-26.21898
1018.196	-32.11825
1018.356	3.27737
1018.516	-4.58832
1018.676	-102.9095
1018.837	13.10949
1018.997	32.77373
1019.157	-6.55475
1019.317	3.27737
1019.477	-59.64818
1019.637	40.63942
1019.798	22.94161
1019.958	140.92703
1020.118	-71.44672
1020.278	5.2438
1020.438	54.40439
1020.598	-2.6219
1020.758	78.00147
1020.918	-55.71534
1021.078	138.9606
1021.238	38.673
1021.397	-81.27884
1021.557	135.02776
1021.717	87.83359
1021.877	-14.42044
1022.037	-39.98395
1022.197	56.37081
1022.357	30.8073
1022.516	-75.37957
1022.676	-75.37957
1022.836	-79.31242
1022.996	26.87446
1023.155	83.90074
1023.315	40.63942
1023.475	-132.40586
1023.634	3.27737
1023.794	46.53869
1023.954	-89.14454
1024.113	117.32994
1024.273	156.65842
1024.432	-69.4803
1024.592	131.09491
1024.751	9.17664
1024.911	-24.25256
1025.07	103.56498
1025.23	-79.31242
1025.389	142.89345
1025.549	38.673
1025.708	131.09491
1025.868	15.07591
1026.027	119.29637
1026.186	-106.84235
1026.346	-77.346
1026.505	40.63942
1026.664	34.74015
1026.823	58.33723
1026.983	-71.44672
1027.142	58.33723
1027.301	-4.58832
1027.46	64.2365
1027.62	9.17664
1027.779	5.2438
1027.938	9.17664
1028.097	-0.65547
1028.256	70.13578
1028.415	-39.98395
1028.574	-53.74891
1028.733	62.27008
1028.892	-39.98395
1029.051	-87.17811
1029.21	46.53869
1029.369	-0.65547
1029.528	11.14307
1029.687	-67.51388
1029.846	22.94161
1030.005	52.43796
1030.164	-61.61461
1030.323	26.87446
1030.482	188.12119
1030.641	68.16935
1030.799	48.50512
1030.958	-59.64818
1031.117	7.21022
1031.276	74.06862
1031.435	5.2438
1031.593	-43.91679
1031.752	22.94161
1031.911	22.94161
1032.069	-39.98395
1032.228	5.2438
1032.387	-41.95037
1032.545	93.73286
1032.704	95.69928
1032.862	-93.07738
1033.021	5.2438
1033.179	-6.55475
1033.338	68.16935
1033.496	-63.58103
1033.655	74.06862
1033.813	-53.74891
1033.972	89.80001
1034.13	56.37081
1034.289	97.66571
1034.447	-57.68176
1034.605	-95.04381
1034.764	-67.51388
1034.922	15.07591
1035.08	1.31095
1035.239	52.43796
1035.397	34.74015
1035.555	-2.6219
1035.713	22.94161
1035.872	-55.71534
1036.03	20.97519
1036.188	-77.346
1036.346	72.1022
1036.504	74.06862
1036.662	-65.54745
1036.821	24.90803
1036.979	97.66571
1037.137	46.53869
1037.295	64.2365
1037.453	44.57227
1037.611	19.00876
1037.769	-8.52117
1037.927	140.92703
1038.085	-24.25256
1038.243	28.84088
1038.401	3.27737
1038.559	3.27737
