Data from LiYF4_Nd_2.5 pc_25 C_Subt2__0__14-18-16-889.txt Node

Date: Thu May 14 14:18:16 CEST 2026
User: NP.5066655
Spectrometer: FLMT06117
Trigger mode: 0
Integration Time (sec): 2.500000E-1
Scans to average: 1
Electric dark correction enabled: true
Nonlinearity correction enabled: false
Boxcar width: 0
XAxis mode: Wavelengths
Number of Pixels in Spectrum: 3648
>>>>>Begin Spectral Data<<<<<
346.633	84.55622
346.852	84.55622
347.071	84.55622
347.29	21.63066
347.51	25.56351
347.729	-23.59708
347.948	-0
348.167	-5.89927
348.386	-78.65694
348.606	76.69052
348.825	9.83212
349.044	104.22045
349.263	-86.52264
349.482	25.56351
349.701	31.46278
349.92	-78.65694
350.139	-82.58979
350.358	-13.76497
350.577	66.8584
350.796	5.89927
351.015	163.21316
351.234	82.58979
351.453	47.19417
351.672	31.46278
351.891	82.58979
352.11	19.66424
352.329	47.19417
352.548	80.62337
352.767	-9.83212
352.986	70.79125
353.204	-74.7241
353.423	13.76497
353.642	-121.91826
353.861	-72.75767
354.08	-29.49635
354.298	51.12701
354.517	-41.2949
354.736	27.52993
354.955	-119.95184
355.173	37.36205
355.392	-47.19417
355.611	25.56351
355.829	-27.52993
356.048	35.39563
356.267	-21.63066
356.485	-33.4292
356.704	-3.93285
356.922	78.65694
357.141	35.39563
357.36	9.83212
357.578	41.2949
357.797	-19.66424
358.015	49.16059
358.234	-27.52993
358.452	70.79125
358.671	-119.95184
358.889	11.79854
359.108	58.99271
359.326	19.66424
359.544	33.4292
359.763	-127.81754
359.981	51.12701
360.2	-0
360.418	-11.79854
360.636	-92.42191
360.855	23.59708
361.073	-7.86569
361.291	-76.69052
361.509	-43.26132
361.728	33.4292
361.946	-84.55622
362.164	25.56351
362.382	49.16059
362.601	-19.66424
362.819	-74.7241
363.037	-29.49635
363.255	23.59708
363.473	-78.65694
363.691	74.7241
363.909	55.05986
364.128	29.49635
364.346	-64.89198
364.564	139.61608
364.782	-51.12701
365	29.49635
365.218	41.2949
365.436	17.69781
365.654	-58.99271
365.872	-39.32847
366.09	27.52993
366.308	78.65694
366.526	17.69781
366.743	-74.7241
366.961	57.02628
367.179	-43.26132
367.397	112.08615
367.615	17.69781
367.833	102.25403
368.051	110.11972
368.268	23.59708
368.486	-25.56351
368.704	-43.26132
368.922	-84.55622
369.14	1.96642
369.357	-41.2949
369.575	-49.16059
369.793	-102.25403
370.01	35.39563
370.228	-13.76497
370.446	60.95913
370.663	-9.83212
370.881	57.02628
371.099	-0
371.316	-57.02628
371.534	11.79854
371.751	-41.2949
371.969	9.83212
372.186	-5.89927
372.404	43.26132
372.621	125.85111
372.839	-88.48906
373.056	123.88469
373.274	45.22774
373.491	55.05986
373.709	68.82483
373.926	66.8584
374.144	33.4292
374.361	62.92556
374.578	1.96642
374.796	64.89198
375.013	43.26132
375.23	84.55622
375.448	112.08615
375.665	-19.66424
375.882	-68.82483
376.099	7.86569
376.317	49.16059
376.534	88.48906
376.751	55.05986
376.968	-68.82483
377.186	45.22774
377.403	-29.49635
377.62	141.5825
377.837	60.95913
378.054	84.55622
378.271	116.01899
378.488	-43.26132
378.705	72.75767
378.923	1.96642
379.14	-29.49635
379.357	108.1533
379.574	43.26132
379.791	-23.59708
380.008	-47.19417
380.225	-58.99271
380.442	58.99271
380.659	-58.99271
380.875	33.4292
381.092	49.16059
381.309	-133.71681
381.526	19.66424
381.743	-35.39563
381.96	78.65694
382.177	-33.4292
382.394	76.69052
382.61	-27.52993
382.827	-55.05986
383.044	-60.95913
383.261	29.49635
383.477	47.19417
383.694	7.86569
383.911	-84.55622
384.128	-66.8584
384.344	72.75767
384.561	-116.01899
384.778	-5.89927
384.994	-74.7241
385.211	15.73139
385.428	7.86569
385.644	-21.63066
385.861	29.49635
386.077	-15.73139
386.294	-25.56351
386.51	80.62337
386.727	121.91826
386.943	-37.36205
387.16	-33.4292
387.376	-7.86569
387.593	33.4292
387.809	-3.93285
388.026	29.49635
388.242	-58.99271
388.459	-33.4292
388.675	-47.19417
388.891	94.38833
389.108	76.69052
389.324	47.19417
389.54	-1.96642
389.757	-13.76497
389.973	53.09344
390.189	-37.36205
390.405	-84.55622
390.622	1.96642
390.838	11.79854
391.054	-66.8584
391.27	-74.7241
391.487	7.86569
391.703	-47.19417
391.919	-31.46278
392.135	110.11972
392.351	47.19417
392.567	-5.89927
392.783	-5.89927
393	104.22045
393.216	-29.49635
393.432	9.83212
393.648	-94.38833
393.864	-19.66424
394.08	35.39563
394.296	60.95913
394.512	-23.59708
394.728	-17.69781
394.944	-70.79125
395.16	19.66424
395.375	3.93285
395.591	45.22774
395.807	-49.16059
396.023	29.49635
396.239	-62.92556
396.455	-31.46278
396.671	78.65694
396.886	11.79854
397.102	58.99271
397.318	131.75038
397.534	-37.36205
397.749	25.56351
397.965	180.91097
398.181	11.79854
398.397	1.96642
398.612	-13.76497
398.828	-9.83212
399.044	-17.69781
399.259	-47.19417
399.475	151.41462
399.691	-13.76497
399.906	15.73139
400.122	-21.63066
400.337	33.4292
400.553	-57.02628
400.768	-5.89927
400.984	33.4292
401.199	-9.83212
401.415	29.49635
401.63	-7.86569
401.846	-0
402.061	-64.89198
402.277	9.83212
402.492	5.89927
402.708	13.76497
402.923	96.35476
403.138	11.79854
403.354	104.22045
403.569	123.88469
403.784	43.26132
404	-80.62337
404.215	149.4482
404.43	-82.58979
404.645	-19.66424
404.861	82.58979
405.076	-27.52993
405.291	72.75767
405.506	15.73139
405.722	-11.79854
405.937	86.52264
406.152	-23.59708
406.367	13.76497
406.582	-131.75038
406.797	15.73139
407.012	-9.83212
407.227	-92.42191
407.442	58.99271
407.658	-74.7241
407.873	-119.95184
408.088	51.12701
408.303	94.38833
408.518	-114.05257
408.733	-19.66424
408.947	-60.95913
409.162	-51.12701
409.377	100.2876
409.592	23.59708
409.807	58.99271
410.022	33.4292
410.237	-31.46278
410.452	74.7241
410.667	25.56351
410.881	-114.05257
411.096	-25.56351
411.311	96.35476
411.526	-19.66424
411.741	-74.7241
411.955	19.66424
412.17	47.19417
412.385	-1.96642
412.599	-78.65694
412.814	66.8584
413.029	-31.46278
413.243	9.83212
413.458	-82.58979
413.673	60.95913
413.887	3.93285
414.102	-108.1533
414.316	5.89927
414.531	11.79854
414.746	62.92556
414.96	-19.66424
415.175	-27.52993
415.389	-55.05986
415.604	94.38833
415.818	13.76497
416.032	23.59708
416.247	-11.79854
416.461	108.1533
416.676	-60.95913
416.89	55.05986
417.105	13.76497
417.319	94.38833
417.533	-0
417.748	-37.36205
417.962	-17.69781
418.176	66.8584
418.39	-84.55622
418.605	-17.69781
418.819	127.81754
419.033	66.8584
419.247	-35.39563
419.462	-1.96642
419.676	127.81754
419.89	121.91826
420.104	-19.66424
420.318	-70.79125
420.532	-147.48177
420.747	3.93285
420.961	-86.52264
421.175	35.39563
421.389	-13.76497
421.603	-62.92556
421.817	-35.39563
422.031	-49.16059
422.245	-43.26132
422.459	15.73139
422.673	72.75767
422.887	-86.52264
423.101	-35.39563
423.315	-39.32847
423.529	-57.02628
423.743	167.14601
423.956	-17.69781
424.17	149.4482
424.384	88.48906
424.598	27.52993
424.812	41.2949
425.026	1.96642
425.239	17.69781
425.453	-35.39563
425.667	27.52993
425.881	41.2949
426.095	-29.49635
426.308	35.39563
426.522	43.26132
426.736	74.7241
426.949	133.71681
427.163	-117.98542
427.377	-23.59708
427.59	180.91097
427.804	70.79125
428.017	-5.89927
428.231	5.89927
428.445	25.56351
428.658	29.49635
428.872	-116.01899
429.085	-0
429.299	100.2876
429.512	-112.08615
429.726	-39.32847
429.939	17.69781
430.153	13.76497
430.366	29.49635
430.579	90.45549
430.793	-64.89198
431.006	82.58979
431.22	-53.09344
431.433	5.89927
431.646	-23.59708
431.86	55.05986
432.073	-55.05986
432.286	-19.66424
432.499	35.39563
432.713	13.76497
432.926	-88.48906
433.139	-96.35476
433.352	-43.26132
433.565	153.38104
433.779	-76.69052
433.992	-70.79125
434.205	62.92556
434.418	-114.05257
434.631	-15.73139
434.844	86.52264
435.057	-33.4292
435.271	-60.95913
435.484	141.5825
435.697	-123.88469
435.91	104.22045
436.123	3.93285
436.336	-15.73139
436.549	-9.83212
436.762	76.69052
436.975	-62.92556
437.187	117.98542
437.4	29.49635
437.613	182.8774
437.826	13.76497
438.039	1.96642
438.252	41.2949
438.465	-51.12701
438.678	-31.46278
438.89	-31.46278
439.103	-13.76497
439.316	-51.12701
439.529	27.52993
439.741	-25.56351
439.954	29.49635
440.167	-90.45549
440.38	-86.52264
440.592	114.05257
440.805	7.86569
441.018	-13.76497
441.23	39.32847
441.443	68.82483
441.656	-35.39563
441.868	25.56351
442.081	180.91097
442.293	1.96642
442.506	25.56351
442.718	-31.46278
442.931	-27.52993
443.143	-37.36205
443.356	-17.69781
443.568	96.35476
443.781	-1.96642
443.993	55.05986
444.206	55.05986
444.418	74.7241
444.63	-21.63066
444.843	43.26132
445.055	33.4292
445.268	5.89927
445.48	-62.92556
445.692	53.09344
445.904	133.71681
446.117	-182.8774
446.329	-76.69052
446.541	100.2876
446.754	29.49635
446.966	-68.82483
447.178	125.85111
447.39	-3.93285
447.602	96.35476
447.815	86.52264
448.027	-84.55622
448.239	9.83212
448.451	-19.66424
448.663	53.09344
448.875	-17.69781
449.087	57.02628
449.299	25.56351
449.511	47.19417
449.723	68.82483
449.935	19.66424
450.147	94.38833
450.359	-51.12701
450.571	72.75767
450.783	-80.62337
450.995	15.73139
451.207	-5.89927
451.419	11.79854
451.631	149.4482
451.843	5.89927
452.055	80.62337
452.266	-11.79854
452.478	-58.99271
452.69	68.82483
452.902	-35.39563
453.114	-55.05986
453.325	-11.79854
453.537	-78.65694
453.749	-33.4292
453.961	31.46278
454.172	37.36205
454.384	31.46278
454.596	76.69052
454.807	3.93285
455.019	80.62337
455.23	45.22774
455.442	1.96642
455.654	-7.86569
455.865	-19.66424
456.077	-17.69781
456.288	129.78396
456.5	35.39563
456.711	-116.01899
456.923	-31.46278
457.134	45.22774
457.346	7.86569
457.557	51.12701
457.769	47.19417
457.98	96.35476
458.192	47.19417
458.403	9.83212
458.614	7.86569
458.826	80.62337
459.037	135.68323
459.248	17.69781
459.46	-68.82483
459.671	37.36205
459.882	66.8584
460.094	37.36205
460.305	1.96642
460.516	-41.2949
460.727	-7.86569
460.938	157.31389
461.15	51.12701
461.361	94.38833
461.572	-70.79125
461.783	72.75767
461.994	60.95913
462.205	55.05986
462.416	57.02628
462.627	-17.69781
462.839	-0
463.05	21.63066
463.261	25.56351
463.472	-159.28031
463.683	-3.93285
463.894	25.56351
464.105	78.65694
464.316	-15.73139
464.526	104.22045
464.737	-62.92556
464.948	121.91826
465.159	29.49635
465.37	25.56351
465.581	13.76497
465.792	-21.63066
466.003	19.66424
466.213	-58.99271
466.424	37.36205
466.635	-5.89927
466.846	19.66424
467.057	-15.73139
467.267	70.79125
467.478	-43.26132
467.689	47.19417
467.899	-58.99271
468.11	-60.95913
468.321	-88.48906
468.531	-90.45549
468.742	-49.16059
468.953	7.86569
469.163	110.11972
469.374	-90.45549
469.584	-15.73139
469.795	-31.46278
470.005	5.89927
470.216	9.83212
470.426	-90.45549
470.637	1.96642
470.847	37.36205
471.058	11.79854
471.268	25.56351
471.479	27.52993
471.689	92.42191
471.9	-13.76497
472.11	-74.7241
472.32	66.8584
472.531	15.73139
472.741	60.95913
472.951	-53.09344
473.162	-82.58979
473.372	43.26132
473.582	-21.63066
473.792	-0
474.003	17.69781
474.213	-35.39563
474.423	11.79854
474.633	33.4292
474.843	-13.76497
475.054	7.86569
475.264	47.19417
475.474	106.18688
475.684	114.05257
475.894	-15.73139
476.104	57.02628
476.314	-37.36205
476.524	-23.59708
476.734	51.12701
476.944	-21.63066
477.154	5.89927
477.364	-41.2949
477.574	-41.2949
477.784	-7.86569
477.994	-53.09344
478.204	82.58979
478.414	-7.86569
478.624	-33.4292
478.834	-49.16059
479.044	23.59708
479.254	27.52993
479.463	13.76497
479.673	7.86569
479.883	53.09344
480.093	-9.83212
480.303	-7.86569
480.512	-3.93285
480.722	5.89927
480.932	-5.89927
481.142	98.32118
481.351	123.88469
481.561	137.64965
481.771	-96.35476
481.98	49.16059
482.19	-27.52993
482.399	-25.56351
482.609	114.05257
482.819	-33.4292
483.028	-43.26132
483.238	-90.45549
483.447	-17.69781
483.657	3.93285
483.866	53.09344
484.076	102.25403
484.285	200.57521
484.495	5.89927
484.704	43.26132
484.914	82.58979
485.123	-29.49635
485.332	39.32847
485.542	-29.49635
485.751	114.05257
485.961	11.79854
486.17	9.83212
486.379	-96.35476
486.589	-0
486.798	3.93285
487.007	-51.12701
487.216	45.22774
487.426	175.0117
487.635	17.69781
487.844	-114.05257
488.053	-51.12701
488.262	27.52993
488.472	33.4292
488.681	-17.69781
488.89	-3.93285
489.099	15.73139
489.308	-47.19417
489.517	35.39563
489.726	11.79854
489.935	-7.86569
490.144	13.76497
490.353	-57.02628
490.562	-15.73139
490.771	-15.73139
490.98	-13.76497
491.189	7.86569
491.398	76.69052
491.607	13.76497
491.816	41.2949
492.025	13.76497
492.234	49.16059
492.443	-104.22045
492.652	96.35476
492.86	68.82483
493.069	-45.22774
493.278	5.89927
493.487	-82.58979
493.696	-60.95913
493.904	163.21316
494.113	19.66424
494.322	86.52264
494.53	74.7241
494.739	-13.76497
494.948	-84.55622
495.156	35.39563
495.365	53.09344
495.574	-58.99271
495.782	98.32118
495.991	147.48177
496.2	-35.39563
496.408	37.36205
496.617	-35.39563
496.825	98.32118
497.034	86.52264
497.242	90.45549
497.451	121.91826
497.659	-19.66424
497.868	-110.11972
498.076	-5.89927
498.285	-55.05986
498.493	-7.86569
498.701	-19.66424
498.91	76.69052
499.118	-49.16059
499.326	-159.28031
499.535	13.76497
499.743	27.52993
499.951	-70.79125
500.16	-72.75767
500.368	27.52993
500.576	-39.32847
500.784	-3.93285
500.993	112.08615
501.201	100.2876
501.409	19.66424
501.617	64.89198
501.825	51.12701
502.034	66.8584
502.242	-78.65694
502.45	-55.05986
502.658	-33.4292
502.866	7.86569
503.074	11.79854
503.282	57.02628
503.49	84.55622
503.698	100.2876
503.906	-119.95184
504.114	3.93285
504.322	-17.69781
504.53	9.83212
504.738	62.92556
504.946	-11.79854
505.154	-43.26132
505.362	-25.56351
505.57	-49.16059
505.777	-25.56351
505.985	-19.66424
506.193	94.38833
506.401	-68.82483
506.609	-58.99271
506.816	-5.89927
507.024	-7.86569
507.232	100.2876
507.44	19.66424
507.647	-0
507.855	3.93285
508.063	49.16059
508.271	-76.69052
508.478	94.38833
508.686	5.89927
508.893	39.32847
509.101	-70.79125
509.309	55.05986
509.516	-68.82483
509.724	-9.83212
509.931	60.95913
510.139	64.89198
510.346	25.56351
510.554	68.82483
510.761	-1.96642
510.969	-39.32847
511.176	-74.7241
511.384	9.83212
511.591	21.63066
511.799	-9.83212
512.006	-9.83212
512.213	11.79854
512.421	57.02628
512.628	-1.96642
512.835	-1.96642
513.043	-23.59708
513.25	15.73139
513.457	88.48906
513.664	51.12701
513.872	53.09344
514.079	-21.63066
514.286	72.75767
514.493	60.95913
514.701	-47.19417
514.908	-58.99271
515.115	55.05986
515.322	141.5825
515.529	84.55622
515.736	-1.96642
515.943	-27.52993
516.15	-29.49635
516.357	-127.81754
516.564	110.11972
516.772	-17.69781
516.979	114.05257
517.186	66.8584
517.392	123.88469
517.599	33.4292
517.806	-13.76497
518.013	-106.18688
518.22	165.17958
518.427	96.35476
518.634	94.38833
518.841	33.4292
519.048	-47.19417
519.255	1.96642
519.461	53.09344
519.668	21.63066
519.875	35.39563
520.082	25.56351
520.289	-9.83212
520.495	78.65694
520.702	-66.8584
520.909	74.7241
521.115	-125.85111
521.322	-23.59708
521.529	-178.94455
521.735	-70.79125
521.942	-19.66424
522.149	-72.75767
522.355	49.16059
522.562	-100.2876
522.768	-60.95913
522.975	3.93285
523.181	78.65694
523.388	-76.69052
523.595	-60.95913
523.801	49.16059
524.007	82.58979
524.214	29.49635
524.42	45.22774
524.627	43.26132
524.833	-35.39563
525.04	-47.19417
525.246	108.1533
525.452	-57.02628
525.659	-11.79854
525.865	47.19417
526.071	-100.2876
526.278	137.64965
526.484	15.73139
526.69	94.38833
526.896	13.76497
527.103	64.89198
527.309	70.79125
527.515	72.75767
527.721	-96.35476
527.927	11.79854
528.134	17.69781
528.34	53.09344
528.546	13.76497
528.752	-31.46278
528.958	-0
529.164	184.84382
529.37	391.3183
529.576	544.69934
529.782	757.07309
529.988	705.94608
530.194	818.03223
530.4	438.51247
530.606	432.6132
530.812	176.97813
531.018	255.63507
531.224	76.69052
531.43	72.75767
531.636	60.95913
531.842	51.12701
532.048	259.56792
532.253	-102.25403
532.459	47.19417
532.665	86.52264
532.871	102.25403
533.077	5.89927
533.282	-9.83212
533.488	-100.2876
533.694	-49.16059
533.9	1.96642
534.105	147.48177
534.311	57.02628
534.517	-70.79125
534.722	147.48177
534.928	110.11972
535.133	96.35476
535.339	-7.86569
535.545	49.16059
535.75	96.35476
535.956	76.69052
536.161	49.16059
536.367	29.49635
536.572	84.55622
536.778	104.22045
536.983	165.17958
537.189	74.7241
537.394	74.7241
537.6	96.35476
537.805	76.69052
538.01	127.81754
538.216	66.8584
538.421	110.11972
538.627	149.4482
538.832	62.92556
539.037	143.54892
539.242	176.97813
539.448	45.22774
539.653	57.02628
539.858	-9.83212
540.064	-33.4292
540.269	98.32118
540.474	5.89927
540.679	86.52264
540.884	157.31389
541.089	-0
541.295	47.19417
541.5	182.8774
541.705	198.60879
541.91	37.36205
542.115	139.61608
542.32	96.35476
542.525	139.61608
542.73	135.68323
542.935	72.75767
543.14	13.76497
543.345	157.31389
543.55	155.34747
543.755	173.04528
543.96	49.16059
544.165	31.46278
544.37	29.49635
544.575	94.38833
544.78	-68.82483
544.984	110.11972
545.189	131.75038
545.394	141.5825
545.599	84.55622
545.804	-58.99271
546.008	92.42191
546.213	-13.76497
546.418	139.61608
546.623	137.64965
546.827	110.11972
547.032	27.52993
547.237	149.4482
547.441	7.86569
547.646	-7.86569
547.851	178.94455
548.055	110.11972
548.26	96.35476
548.464	108.1533
548.669	60.95913
548.874	127.81754
549.078	88.48906
549.283	25.56351
549.487	131.75038
549.692	84.55622
549.896	84.55622
550.101	84.55622
550.305	68.82483
550.509	167.14601
550.714	200.57521
550.918	-17.69781
551.123	41.2949
551.327	237.93726
551.531	100.2876
551.736	86.52264
551.94	192.70951
552.144	55.05986
552.349	96.35476
552.553	129.78396
552.757	9.83212
552.961	90.45549
553.165	-68.82483
553.37	51.12701
553.574	66.8584
553.778	98.32118
553.982	145.51535
554.186	165.17958
554.39	169.11243
554.595	27.52993
554.799	102.25403
555.003	129.78396
555.207	96.35476
555.411	157.31389
555.615	173.04528
555.819	84.55622
556.023	3.93285
556.227	214.34017
556.431	167.14601
556.635	108.1533
556.839	72.75767
557.043	98.32118
557.246	159.28031
557.45	57.02628
557.654	76.69052
557.858	135.68323
558.062	-3.93285
558.266	21.63066
558.469	192.70951
558.673	-23.59708
558.877	19.66424
559.081	200.57521
559.285	98.32118
559.488	90.45549
559.692	230.07156
559.896	169.11243
560.099	39.32847
560.303	-35.39563
560.507	-7.86569
560.71	112.08615
560.914	129.78396
561.117	210.40733
561.321	192.70951
561.525	155.34747
561.728	161.24674
561.932	117.98542
562.135	80.62337
562.339	133.71681
562.542	60.95913
562.746	106.18688
562.949	218.27302
563.152	78.65694
563.356	60.95913
563.559	216.3066
563.763	235.97083
563.966	176.97813
564.169	116.01899
564.373	216.3066
564.576	125.85111
564.779	5.89927
564.983	259.56792
565.186	226.13872
565.389	90.45549
565.592	84.55622
565.796	88.48906
565.999	72.75767
566.202	237.93726
566.405	180.91097
566.608	62.92556
566.812	141.5825
567.015	60.95913
567.218	72.75767
567.421	123.88469
567.624	104.22045
567.827	147.48177
568.03	202.54163
568.233	121.91826
568.436	281.19858
568.639	108.1533
568.842	55.05986
569.045	110.11972
569.248	-27.52993
569.451	165.17958
569.654	355.92268
569.857	981.24539
570.06	1838.60609
570.263	2705.7989
570.465	2762.82519
570.668	2674.33612
570.871	2023.44991
571.074	1374.53011
571.277	611.55775
571.479	375.58691
571.682	407.04969
571.885	237.93726
572.088	224.17229
572.29	192.70951
572.493	180.91097
572.696	96.35476
572.898	318.56063
573.101	125.85111
573.304	157.31389
573.506	135.68323
573.709	155.34747
573.911	169.11243
574.114	210.40733
574.317	108.1533
574.519	167.14601
574.722	123.88469
574.924	-3.93285
575.127	151.41462
575.329	194.67594
575.532	39.32847
575.734	175.0117
575.936	228.10514
576.139	204.50806
576.341	137.64965
576.544	143.54892
576.746	253.66865
576.948	135.68323
577.151	84.55622
577.353	287.09785
577.555	216.3066
577.757	190.74309
577.96	33.4292
578.162	210.40733
578.364	133.71681
578.566	129.78396
578.769	90.45549
578.971	171.07885
579.173	208.4409
579.375	143.54892
579.577	153.38104
579.779	220.23945
579.981	173.04528
580.184	275.29931
580.386	72.75767
580.588	216.3066
580.79	131.75038
580.992	218.27302
581.194	253.66865
581.396	123.88469
581.598	188.77667
581.8	351.98983
582.002	237.93726
582.203	180.91097
582.405	155.34747
582.607	202.54163
582.809	116.01899
583.011	84.55622
583.213	76.69052
583.415	190.74309
583.617	82.58979
583.818	167.14601
584.02	226.13872
584.222	196.64236
584.424	175.0117
584.625	62.92556
584.827	167.14601
585.029	220.23945
585.23	210.40733
585.432	82.58979
585.634	155.34747
585.835	208.4409
586.037	167.14601
586.239	196.64236
586.44	232.03799
586.642	224.17229
586.843	184.84382
587.045	157.31389
587.246	167.14601
587.448	216.3066
587.649	216.3066
587.851	153.38104
588.052	104.22045
588.254	196.64236
588.455	102.25403
588.657	78.65694
588.858	180.91097
589.059	139.61608
589.261	135.68323
589.462	171.07885
589.663	234.00441
589.865	123.88469
590.066	324.4599
590.267	155.34747
590.468	178.94455
590.67	206.47448
590.871	145.51535
591.072	237.93726
591.273	110.11972
591.475	291.0307
591.676	96.35476
591.877	161.24674
592.078	259.56792
592.279	249.7358
592.48	143.54892
592.681	39.32847
592.882	86.52264
593.083	186.81024
593.284	106.18688
593.485	214.34017
593.686	241.87011
593.887	163.21316
594.088	129.78396
594.289	157.31389
594.49	129.78396
594.691	102.25403
594.892	-35.39563
595.093	176.97813
595.294	206.47448
595.495	43.26132
595.696	163.21316
595.896	62.92556
596.097	106.18688
596.298	157.31389
596.499	137.64965
596.7	74.7241
596.9	206.47448
597.101	114.05257
597.302	202.54163
597.502	141.5825
597.703	86.52264
597.904	135.68323
598.104	58.99271
598.305	190.74309
598.506	57.02628
598.706	198.60879
598.907	49.16059
599.107	70.79125
599.308	55.05986
599.508	137.64965
599.709	175.0117
599.909	200.57521
600.11	92.42191
600.31	-17.69781
600.511	255.63507
600.711	127.81754
600.912	133.71681
601.112	153.38104
601.313	100.2876
601.513	35.39563
601.713	96.35476
601.914	194.67594
602.114	110.11972
602.314	90.45549
602.515	180.91097
602.715	182.8774
602.915	110.11972
603.115	119.95184
603.316	200.57521
603.516	112.08615
603.716	76.69052
603.916	139.61608
604.116	261.53434
604.316	180.91097
604.517	135.68323
604.717	58.99271
604.917	200.57521
605.117	180.91097
605.317	131.75038
605.517	232.03799
605.717	47.19417
605.917	235.97083
606.117	202.54163
606.317	169.11243
606.517	94.38833
606.717	139.61608
606.917	119.95184
607.117	222.20587
607.317	133.71681
607.516	186.81024
607.716	135.68323
607.916	182.8774
608.116	188.77667
608.316	155.34747
608.516	165.17958
608.715	139.61608
608.915	255.63507
609.115	218.27302
609.315	157.31389
609.514	155.34747
609.714	198.60879
609.914	224.17229
610.114	208.4409
610.313	112.08615
610.513	241.87011
610.712	251.70222
610.912	121.91826
611.112	74.7241
611.311	261.53434
611.511	155.34747
611.71	190.74309
611.91	173.04528
612.109	180.91097
612.309	131.75038
612.508	206.47448
612.708	267.43361
612.907	64.89198
613.107	159.28031
613.306	190.74309
613.505	178.94455
613.705	60.95913
613.904	96.35476
614.104	137.64965
614.303	180.91097
614.502	163.21316
614.702	102.25403
614.901	60.95913
615.1	165.17958
615.299	119.95184
615.499	131.75038
615.698	194.67594
615.897	163.21316
616.096	206.47448
616.295	92.42191
616.494	123.88469
616.694	204.50806
616.893	116.01899
617.092	184.84382
617.291	224.17229
617.49	55.05986
617.689	60.95913
617.888	255.63507
618.087	129.78396
618.286	141.5825
618.485	119.95184
618.684	226.13872
618.883	121.91826
619.082	-23.59708
619.281	13.76497
619.48	182.8774
619.679	198.60879
619.878	208.4409
620.076	198.60879
620.275	27.52993
620.474	141.5825
620.673	90.45549
620.872	157.31389
621.07	139.61608
621.269	114.05257
621.468	175.0117
621.667	117.98542
621.865	171.07885
622.064	-37.36205
622.263	224.17229
622.461	-0
622.66	29.49635
622.859	171.07885
623.057	245.80295
623.256	110.11972
623.455	53.09344
623.653	173.04528
623.852	194.67594
624.05	163.21316
624.249	37.36205
624.447	259.56792
624.646	210.40733
624.844	165.17958
625.043	41.2949
625.241	94.38833
625.439	135.68323
625.638	137.64965
625.836	167.14601
626.035	163.21316
626.233	84.55622
626.431	125.85111
626.63	133.71681
626.828	230.07156
627.026	157.31389
627.225	53.09344
627.423	155.34747
627.621	127.81754
627.819	157.31389
628.017	206.47448
628.216	167.14601
628.414	228.10514
628.612	202.54163
628.81	131.75038
629.008	70.79125
629.206	72.75767
629.404	159.28031
629.602	119.95184
629.801	178.94455
629.999	96.35476
630.197	131.75038
630.395	19.66424
630.593	210.40733
630.791	135.68323
630.989	116.01899
631.187	204.50806
631.384	106.18688
631.582	123.88469
631.78	216.3066
631.978	116.01899
632.176	108.1533
632.374	129.78396
632.572	35.39563
632.769	74.7241
632.967	196.64236
633.165	129.78396
633.363	121.91826
633.561	106.18688
633.758	62.92556
633.956	190.74309
634.154	129.78396
634.351	55.05986
634.549	165.17958
634.747	214.34017
634.944	106.18688
635.142	121.91826
635.34	-13.76497
635.537	119.95184
635.735	116.01899
635.932	102.25403
636.13	157.31389
636.327	64.89198
636.525	200.57521
636.722	114.05257
636.92	234.00441
637.117	116.01899
637.315	47.19417
637.512	19.66424
637.709	106.18688
637.907	125.85111
638.104	117.98542
638.302	112.08615
638.499	145.51535
638.696	35.39563
638.894	108.1533
639.091	92.42191
639.288	102.25403
639.485	47.19417
639.683	145.51535
639.88	139.61608
640.077	167.14601
640.274	80.62337
640.471	127.81754
640.669	279.23215
640.866	70.79125
641.063	70.79125
641.26	106.18688
641.457	147.48177
641.654	55.05986
641.851	41.2949
642.048	53.09344
642.245	129.78396
642.442	70.79125
642.639	159.28031
642.836	117.98542
643.033	180.91097
643.23	39.32847
643.427	108.1533
643.624	110.11972
643.821	108.1533
644.018	116.01899
644.215	64.89198
644.411	88.48906
644.608	119.95184
644.805	157.31389
645.002	116.01899
645.199	57.02628
645.395	72.75767
645.592	82.58979
645.789	257.60149
645.986	90.45549
646.182	131.75038
646.379	114.05257
646.576	78.65694
646.772	131.75038
646.969	43.26132
647.166	173.04528
647.362	145.51535
647.559	53.09344
647.755	163.21316
647.952	90.45549
648.148	64.89198
648.345	121.91826
648.541	167.14601
648.738	78.65694
648.934	196.64236
649.131	123.88469
649.327	47.19417
649.524	125.85111
649.72	100.2876
649.916	60.95913
650.113	11.79854
650.309	127.81754
650.506	131.75038
650.702	37.36205
650.898	15.73139
651.094	86.52264
651.291	27.52993
651.487	114.05257
651.683	131.75038
651.879	72.75767
652.076	76.69052
652.272	121.91826
652.468	161.24674
652.664	210.40733
652.86	139.61608
653.056	-9.83212
653.253	31.46278
653.449	3.93285
653.645	176.97813
653.841	51.12701
654.037	23.59708
654.233	80.62337
654.429	94.38833
654.625	188.77667
654.821	121.91826
655.017	9.83212
655.213	72.75767
655.409	-49.16059
655.605	-13.76497
655.8	157.31389
655.996	100.2876
656.192	116.01899
656.388	249.7358
656.584	96.35476
656.78	76.69052
656.975	149.4482
657.171	190.74309
657.367	182.8774
657.563	190.74309
657.758	159.28031
657.954	194.67594
658.15	165.17958
658.345	70.79125
658.541	151.41462
658.737	86.52264
658.932	114.05257
659.128	-21.63066
659.324	60.95913
659.519	186.81024
659.715	29.49635
659.91	121.91826
660.106	151.41462
660.301	-7.86569
660.497	176.97813
660.692	92.42191
660.888	78.65694
661.083	-19.66424
661.279	131.75038
661.474	-7.86569
661.669	78.65694
661.865	41.2949
662.06	176.97813
662.256	66.8584
662.451	285.13142
662.646	68.82483
662.841	47.19417
663.037	74.7241
663.232	-15.73139
663.427	200.57521
663.623	76.69052
663.818	41.2949
664.013	192.70951
664.208	186.81024
664.403	232.03799
664.598	131.75038
664.794	169.11243
664.989	114.05257
665.184	153.38104
665.379	145.51535
665.574	66.8584
665.769	-19.66424
665.964	-31.46278
666.159	74.7241
666.354	15.73139
666.549	117.98542
666.744	98.32118
666.939	171.07885
667.134	125.85111
667.329	-60.95913
667.524	131.75038
667.719	47.19417
667.913	53.09344
668.108	119.95184
668.303	169.11243
668.498	-15.73139
668.693	123.88469
668.887	167.14601
669.082	57.02628
669.277	-3.93285
669.472	80.62337
669.666	129.78396
669.861	-11.79854
670.056	74.7241
670.251	78.65694
670.445	129.78396
670.64	78.65694
670.834	200.57521
671.029	98.32118
671.224	60.95913
671.418	43.26132
671.613	17.69781
671.807	-15.73139
672.002	153.38104
672.196	39.32847
672.391	196.64236
672.585	62.92556
672.78	171.07885
672.974	-94.38833
673.169	-88.48906
673.363	-76.69052
673.557	116.01899
673.752	121.91826
673.946	104.22045
674.14	129.78396
674.335	72.75767
674.529	62.92556
674.723	66.8584
674.918	23.59708
675.112	39.32847
675.306	121.91826
675.5	1.96642
675.695	137.64965
675.889	92.42191
676.083	21.63066
676.277	82.58979
676.471	68.82483
676.665	27.52993
676.859	23.59708
677.053	104.22045
677.248	35.39563
677.442	60.95913
677.636	62.92556
677.83	127.81754
678.024	123.88469
678.218	47.19417
678.412	64.89198
678.606	222.20587
678.8	72.75767
678.993	19.66424
679.187	-1.96642
679.381	74.7241
679.575	19.66424
679.769	68.82483
679.963	23.59708
680.157	84.55622
680.35	82.58979
680.544	106.18688
680.738	39.32847
680.932	57.02628
681.125	55.05986
681.319	98.32118
681.513	-74.7241
681.707	127.81754
681.9	37.36205
682.094	64.89198
682.288	55.05986
682.481	153.38104
682.675	141.5825
682.868	-35.39563
683.062	72.75767
683.256	116.01899
683.449	94.38833
683.643	-33.4292
683.836	114.05257
684.03	-31.46278
684.223	62.92556
684.416	76.69052
684.61	-68.82483
684.803	86.52264
684.997	100.2876
685.19	76.69052
685.384	-15.73139
685.577	55.05986
685.77	155.34747
685.964	151.41462
686.157	96.35476
686.35	-9.83212
686.543	33.4292
686.737	-108.1533
686.93	25.56351
687.123	62.92556
687.316	53.09344
687.51	-1.96642
687.703	39.32847
687.896	23.59708
688.089	72.75767
688.282	66.8584
688.475	57.02628
688.668	1.96642
688.861	41.2949
689.054	35.39563
689.247	117.98542
689.441	23.59708
689.634	-19.66424
689.827	175.0117
690.019	43.26132
690.212	167.14601
690.405	186.81024
690.598	3.93285
690.791	35.39563
690.984	-35.39563
691.177	-47.19417
691.37	155.34747
691.563	51.12701
691.755	173.04528
691.948	232.03799
692.141	57.02628
692.334	62.92556
692.527	102.25403
692.719	116.01899
692.912	98.32118
693.105	29.49635
693.297	53.09344
693.49	25.56351
693.683	-9.83212
693.875	129.78396
694.068	25.56351
694.261	86.52264
694.453	49.16059
694.646	102.25403
694.838	114.05257
695.031	119.95184
695.223	-9.83212
695.416	141.5825
695.608	37.36205
695.801	43.26132
695.993	19.66424
696.186	41.2949
696.378	-25.56351
696.571	3.93285
696.763	55.05986
696.955	66.8584
697.148	39.32847
697.34	57.02628
697.532	-62.92556
697.725	17.69781
697.917	86.52264
698.109	17.69781
698.302	35.39563
698.494	96.35476
698.686	53.09344
698.878	171.07885
699.07	39.32847
699.263	35.39563
699.455	-53.09344
699.647	39.32847
699.839	106.18688
700.031	-100.2876
700.223	133.71681
700.415	66.8584
700.607	1.96642
700.799	66.8584
700.991	41.2949
701.183	80.62337
701.375	-15.73139
701.567	-100.2876
701.759	15.73139
701.951	92.42191
702.143	33.4292
702.335	72.75767
702.527	72.75767
702.719	25.56351
702.911	35.39563
703.102	5.89927
703.294	21.63066
703.486	-9.83212
703.678	-19.66424
703.87	19.66424
704.061	-19.66424
704.253	110.11972
704.445	129.78396
704.637	43.26132
704.828	58.99271
705.02	110.11972
705.212	147.48177
705.403	-129.78396
705.595	-0
705.786	-90.45549
705.978	60.95913
706.17	88.48906
706.361	51.12701
706.553	37.36205
706.744	180.91097
706.936	7.86569
707.127	37.36205
707.319	47.19417
707.51	90.45549
707.702	151.41462
707.893	64.89198
708.084	-25.56351
708.276	112.08615
708.467	-7.86569
708.658	27.52993
708.85	27.52993
709.041	70.79125
709.232	55.05986
709.424	21.63066
709.615	43.26132
709.806	51.12701
709.997	60.95913
710.189	92.42191
710.38	100.2876
710.571	-35.39563
710.762	161.24674
710.953	21.63066
711.145	-0
711.336	39.32847
711.527	-19.66424
711.718	-86.52264
711.909	117.98542
712.1	139.61608
712.291	9.83212
712.482	-98.32118
712.673	76.69052
712.864	92.42191
713.055	53.09344
713.246	43.26132
713.437	-39.32847
713.628	-21.63066
713.819	39.32847
714.009	62.92556
714.2	19.66424
714.391	100.2876
714.582	123.88469
714.773	76.69052
714.964	100.2876
715.154	82.58979
715.345	-15.73139
715.536	15.73139
715.727	100.2876
715.917	19.66424
716.108	-11.79854
716.299	-57.02628
716.489	131.75038
716.68	125.85111
716.871	35.39563
717.061	106.18688
717.252	60.95913
717.442	88.48906
717.633	25.56351
717.824	15.73139
718.014	94.38833
718.205	-3.93285
718.395	72.75767
718.586	60.95913
718.776	143.54892
718.967	5.89927
719.157	35.39563
719.347	-33.4292
719.538	-72.75767
719.728	5.89927
719.918	76.69052
720.109	62.92556
720.299	133.71681
720.489	-39.32847
720.68	41.2949
720.87	-31.46278
721.06	76.69052
721.251	72.75767
721.441	-13.76497
721.631	17.69781
721.821	116.01899
722.011	104.22045
722.201	68.82483
722.392	127.81754
722.582	13.76497
722.772	49.16059
722.962	-60.95913
723.152	51.12701
723.342	-1.96642
723.532	-62.92556
723.722	-31.46278
723.912	29.49635
724.102	-19.66424
724.292	1.96642
724.482	57.02628
724.672	37.36205
724.862	13.76497
725.052	-51.12701
725.242	21.63066
725.432	-58.99271
725.621	-29.49635
725.811	-35.39563
726.001	-51.12701
726.191	-82.58979
726.381	70.79125
726.57	43.26132
726.76	-70.79125
726.95	-66.8584
727.14	51.12701
727.329	88.48906
727.519	7.86569
727.709	5.89927
727.898	-31.46278
728.088	129.78396
728.278	62.92556
728.467	96.35476
728.657	39.32847
728.846	68.82483
729.036	62.92556
729.225	29.49635
729.415	-78.65694
729.605	60.95913
729.794	-9.83212
729.983	80.62337
730.173	27.52993
730.362	25.56351
730.552	-39.32847
730.741	58.99271
730.931	-47.19417
731.12	23.59708
731.309	51.12701
731.499	108.1533
731.688	117.98542
731.877	-17.69781
732.066	-33.4292
732.256	47.19417
732.445	41.2949
732.634	-41.2949
732.823	-78.65694
733.013	25.56351
733.202	92.42191
733.391	104.22045
733.58	68.82483
733.769	-45.22774
733.958	-19.66424
734.147	9.83212
734.337	17.69781
734.526	-51.12701
734.715	17.69781
734.904	11.79854
735.093	76.69052
735.282	35.39563
735.471	43.26132
735.66	88.48906
735.849	-11.79854
736.037	57.02628
736.226	43.26132
736.415	74.7241
736.604	-31.46278
736.793	129.78396
736.982	51.12701
737.171	-55.05986
737.359	-129.78396
737.548	-96.35476
737.737	-3.93285
737.926	19.66424
738.115	72.75767
738.303	-78.65694
738.492	55.05986
738.681	-51.12701
738.869	-3.93285
739.058	-1.96642
739.247	-45.22774
739.435	9.83212
739.624	90.45549
739.812	-141.5825
740.001	27.52993
740.19	116.01899
740.378	9.83212
740.567	200.57521
740.755	37.36205
740.944	27.52993
741.132	35.39563
741.321	43.26132
741.509	-27.52993
741.697	13.76497
741.886	39.32847
742.074	19.66424
742.263	149.4482
742.451	-47.19417
742.639	47.19417
742.828	-72.75767
743.016	125.85111
743.204	-1.96642
743.392	-17.69781
743.581	72.75767
743.769	53.09344
743.957	76.69052
744.145	96.35476
744.333	76.69052
744.522	-72.75767
744.71	-66.8584
744.898	94.38833
745.086	1.96642
745.274	66.8584
745.462	104.22045
745.65	3.93285
745.838	175.0117
746.026	180.91097
746.214	-3.93285
746.402	112.08615
746.59	98.32118
746.778	-149.4482
746.966	72.75767
747.154	-27.52993
747.342	-68.82483
747.53	-35.39563
747.718	108.1533
747.906	173.04528
748.093	15.73139
748.281	-58.99271
748.469	106.18688
748.657	-86.52264
748.845	21.63066
749.032	29.49635
749.22	141.5825
749.408	-43.26132
749.596	167.14601
749.783	-29.49635
749.971	49.16059
750.159	96.35476
750.346	19.66424
750.534	39.32847
750.721	55.05986
750.909	-7.86569
751.097	86.52264
751.284	3.93285
751.472	72.75767
751.659	112.08615
751.847	1.96642
752.034	-60.95913
752.222	125.85111
752.409	-88.48906
752.597	55.05986
752.784	82.58979
752.971	-17.69781
753.159	53.09344
753.346	11.79854
753.533	-5.89927
753.721	-47.19417
753.908	5.89927
754.095	-17.69781
754.283	121.91826
754.47	13.76497
754.657	57.02628
754.844	76.69052
755.032	-7.86569
755.219	27.52993
755.406	55.05986
755.593	-17.69781
755.78	17.69781
755.967	41.2949
756.155	43.26132
756.342	-53.09344
756.529	82.58979
756.716	1.96642
756.903	-55.05986
757.09	-0
757.277	5.89927
757.464	43.26132
757.651	-11.79854
757.838	9.83212
758.025	-84.55622
758.212	133.71681
758.399	-0
758.585	-94.38833
758.772	31.46278
758.959	-17.69781
759.146	139.61608
759.333	49.16059
759.52	25.56351
759.706	-9.83212
759.893	-13.76497
760.08	-88.48906
760.267	68.82483
760.453	19.66424
760.64	-9.83212
760.827	88.48906
761.013	41.2949
761.2	-55.05986
761.387	35.39563
761.573	-31.46278
761.76	39.32847
761.946	-58.99271
762.133	68.82483
762.32	62.92556
762.506	-41.2949
762.693	-5.89927
762.879	-35.39563
763.066	-45.22774
763.252	-9.83212
763.439	21.63066
763.625	47.19417
763.811	66.8584
763.998	3.93285
764.184	-47.19417
764.371	86.52264
764.557	-84.55622
764.743	-31.46278
764.929	11.79854
765.116	159.28031
765.302	-5.89927
765.488	-49.16059
765.675	92.42191
765.861	-27.52993
766.047	58.99271
766.233	-84.55622
766.419	-27.52993
766.605	-60.95913
766.792	55.05986
766.978	70.79125
767.164	86.52264
767.35	-90.45549
767.536	-57.02628
767.722	116.01899
767.908	-9.83212
768.094	60.95913
768.28	11.79854
768.466	-39.32847
768.652	-13.76497
768.838	51.12701
769.024	55.05986
769.21	78.65694
769.396	1.96642
769.582	-53.09344
769.767	70.79125
769.953	17.69781
770.139	60.95913
770.325	31.46278
770.511	43.26132
770.697	33.4292
770.882	37.36205
771.068	55.05986
771.254	37.36205
771.44	-39.32847
771.625	-151.41462
771.811	-92.42191
771.997	-5.89927
772.182	3.93285
772.368	5.89927
772.553	-9.83212
772.739	7.86569
772.925	-114.05257
773.11	66.8584
773.296	-45.22774
773.481	68.82483
773.667	53.09344
773.852	35.39563
774.038	31.46278
774.223	58.99271
774.409	-35.39563
774.594	-57.02628
774.779	-7.86569
774.965	33.4292
775.15	-23.59708
775.335	-23.59708
775.521	45.22774
775.706	-68.82483
775.891	82.58979
776.077	-21.63066
776.262	13.76497
776.447	31.46278
776.632	-0
776.818	-7.86569
777.003	9.83212
777.188	-13.76497
777.373	92.42191
777.558	33.4292
777.743	-37.36205
777.929	-88.48906
778.114	13.76497
778.299	104.22045
778.484	58.99271
778.669	68.82483
778.854	133.71681
779.039	57.02628
779.224	116.01899
779.409	74.7241
779.594	-35.39563
779.779	57.02628
779.964	70.79125
780.149	23.59708
780.333	47.19417
780.518	31.46278
780.703	68.82483
780.888	33.4292
781.073	29.49635
781.258	5.89927
781.442	175.0117
781.627	78.65694
781.812	58.99271
781.997	-0
782.181	-15.73139
782.366	43.26132
782.551	49.16059
782.735	78.65694
782.92	-21.63066
783.105	29.49635
783.289	-11.79854
783.474	86.52264
783.658	123.88469
783.843	204.50806
784.028	-70.79125
784.212	-31.46278
784.397	100.2876
784.581	11.79854
784.766	253.66865
784.95	-80.62337
785.134	108.1533
785.319	27.52993
785.503	82.58979
785.688	92.42191
785.872	-1.96642
786.056	222.20587
786.241	19.66424
786.425	-27.52993
786.609	41.2949
786.794	145.51535
786.978	159.28031
787.162	74.7241
787.346	141.5825
787.531	245.80295
787.715	232.03799
787.899	180.91097
788.083	137.64965
788.267	186.81024
788.451	214.34017
788.636	346.09056
788.82	324.4599
789.004	369.68764
789.188	438.51247
789.372	371.65406
789.556	548.63219
789.74	601.72563
789.924	532.9008
790.108	544.69934
790.292	615.49059
790.476	517.16941
790.66	530.93438
790.844	593.85993
791.028	473.90809
791.211	438.51247
791.395	471.94167
791.579	338.22486
791.763	326.42632
791.947	232.03799
792.13	261.53434
792.314	194.67594
792.498	320.52705
792.682	243.83653
792.865	298.89639
793.049	253.66865
793.233	328.39274
793.417	306.76208
793.6	328.39274
793.784	391.3183
793.967	456.21028
794.151	350.0234
794.335	403.11684
794.518	562.39716
794.702	639.08768
794.885	709.87893
795.069	766.90521
795.252	705.94608
795.436	755.10667
795.619	796.40157
795.803	662.68476
795.986	621.38986
796.169	591.89351
796.353	670.55045
796.536	552.56504
796.72	426.71393
796.903	379.51976
797.086	412.94896
797.27	367.72122
797.453	373.62049
797.636	247.76938
797.819	448.34459
798.003	271.36646
798.186	230.07156
798.369	184.84382
798.552	251.70222
798.735	336.25844
798.918	208.4409
799.102	294.96354
799.285	318.56063
799.468	249.7358
799.651	344.12413
799.834	279.23215
800.017	468.00882
800.2	298.89639
800.383	302.82924
800.566	450.31101
800.749	310.69493
800.932	330.35917
801.115	351.98983
801.298	306.76208
801.481	414.91538
801.664	326.42632
801.847	454.24386
802.029	428.68035
802.212	469.97525
802.395	534.86722
802.578	503.40445
802.761	582.06139
802.943	483.74021
803.126	637.12125
803.309	607.6249
803.492	587.96066
803.674	788.53587
803.857	648.91979
804.04	646.95337
804.222	595.82636
804.405	633.18841
804.588	532.9008
804.77	652.85264
804.953	574.1957
805.135	597.79278
805.318	479.80736
805.5	509.30372
805.683	462.10955
805.865	521.10226
806.048	414.91538
806.23	501.43802
806.413	536.83365
806.595	534.86722
806.778	584.02782
806.96	566.33
807.142	625.32271
807.325	556.49788
807.507	505.37087
807.689	513.23656
807.872	497.50518
808.054	357.8891
808.236	487.67306
808.418	302.82924
808.601	361.82195
808.783	289.06427
808.965	235.97083
809.147	277.26573
809.329	169.11243
809.512	320.52705
809.694	206.47448
809.876	116.01899
810.058	338.22486
810.24	239.90368
810.422	114.05257
810.604	202.54163
810.786	291.0307
810.968	222.20587
811.15	196.64236
811.332	259.56792
811.514	340.19129
811.696	72.75767
811.878	173.04528
812.06	210.40733
812.242	155.34747
812.424	194.67594
812.605	110.11972
812.787	198.60879
812.969	188.77667
813.151	131.75038
813.333	104.22045
813.514	25.56351
813.696	125.85111
813.878	41.2949
814.06	202.54163
814.241	159.28031
814.423	76.69052
814.605	-9.83212
814.786	39.32847
814.968	96.35476
815.149	76.69052
815.331	19.66424
815.513	110.11972
815.694	88.48906
815.876	176.97813
816.057	47.19417
816.239	102.25403
816.42	127.81754
816.602	84.55622
816.783	-31.46278
816.965	53.09344
817.146	194.67594
817.327	94.38833
817.509	88.48906
817.69	139.61608
817.872	157.31389
818.053	3.93285
818.234	-21.63066
818.415	11.79854
818.597	7.86569
818.778	-25.56351
818.959	-3.93285
819.14	114.05257
819.322	117.98542
819.503	57.02628
819.684	7.86569
819.865	66.8584
820.046	-35.39563
820.227	100.2876
820.409	190.74309
820.59	143.54892
820.771	-35.39563
820.952	114.05257
821.133	173.04528
821.314	74.7241
821.495	58.99271
821.676	51.12701
821.857	51.12701
822.038	108.1533
822.219	232.03799
822.4	55.05986
822.58	102.25403
822.761	51.12701
822.942	58.99271
823.123	70.79125
823.304	143.54892
823.485	171.07885
823.665	165.17958
823.846	149.4482
824.027	68.82483
824.208	143.54892
824.388	285.13142
824.569	139.61608
824.75	249.7358
824.931	178.94455
825.111	175.0117
825.292	11.79854
825.472	-35.39563
825.653	78.65694
825.834	82.58979
826.014	17.69781
826.195	58.99271
826.375	196.64236
826.556	135.68323
826.736	129.78396
826.917	47.19417
827.097	35.39563
827.278	108.1533
827.458	60.95913
827.638	137.64965
827.819	60.95913
827.999	137.64965
828.18	131.75038
828.36	123.88469
828.54	55.05986
828.721	157.31389
828.901	19.66424
829.081	110.11972
829.261	104.22045
829.442	131.75038
829.622	119.95184
829.802	82.58979
829.982	167.14601
830.162	39.32847
830.343	70.79125
830.523	141.5825
830.703	-19.66424
830.883	82.58979
831.063	53.09344
831.243	53.09344
831.423	9.83212
831.603	82.58979
831.783	102.25403
831.963	-88.48906
832.143	1.96642
832.323	86.52264
832.503	-62.92556
832.683	-60.95913
832.863	127.81754
833.043	129.78396
833.223	13.76497
833.402	-37.36205
833.582	-49.16059
833.762	-45.22774
833.942	58.99271
834.122	21.63066
834.301	-0
834.481	112.08615
834.661	70.79125
834.841	-23.59708
835.02	29.49635
835.2	72.75767
835.38	190.74309
835.559	-25.56351
835.739	45.22774
835.918	-0
836.098	72.75767
836.278	-3.93285
836.457	-1.96642
836.637	-15.73139
836.816	-21.63066
836.996	-7.86569
837.175	27.52993
837.355	157.31389
837.534	151.41462
837.714	31.46278
837.893	76.69052
838.072	137.64965
838.252	214.34017
838.431	84.55622
838.61	13.76497
838.79	58.99271
838.969	173.04528
839.148	88.48906
839.328	135.68323
839.507	102.25403
839.686	86.52264
839.865	-1.96642
840.045	39.32847
840.224	5.89927
840.403	143.54892
840.582	112.08615
840.761	72.75767
840.94	167.14601
841.119	39.32847
841.298	104.22045
841.478	68.82483
841.657	23.59708
841.836	68.82483
842.015	72.75767
842.194	76.69052
842.373	62.92556
842.552	84.55622
842.73	104.22045
842.909	159.28031
843.088	192.70951
843.267	41.2949
843.446	129.78396
843.625	76.69052
843.804	121.91826
843.983	153.38104
844.161	104.22045
844.34	90.45549
844.519	-17.69781
844.698	58.99271
844.876	19.66424
845.055	84.55622
845.234	94.38833
845.413	-31.46278
845.591	106.18688
845.77	161.24674
845.948	133.71681
846.127	257.60149
846.306	155.34747
846.484	47.19417
846.663	110.11972
846.841	88.48906
847.02	64.89198
847.198	98.32118
847.377	249.7358
847.555	64.89198
847.734	116.01899
847.912	74.7241
848.091	51.12701
848.269	200.57521
848.447	25.56351
848.626	100.2876
848.804	224.17229
848.982	176.97813
849.161	94.38833
849.339	235.97083
849.517	112.08615
849.696	62.92556
849.874	200.57521
850.052	151.41462
850.23	230.07156
850.408	263.50077
850.587	143.54892
850.765	251.70222
850.943	234.00441
851.121	275.29931
851.299	314.62778
851.477	291.0307
851.655	194.67594
851.833	241.87011
852.011	241.87011
852.189	289.06427
852.367	355.92268
852.545	269.40004
852.723	255.63507
852.901	355.92268
853.079	300.86281
853.257	346.09056
853.435	410.98254
853.613	397.21757
853.791	322.49347
853.968	409.01611
854.146	273.33288
854.324	373.62049
854.502	471.94167
854.68	564.36358
854.857	493.57233
855.035	525.03511
855.213	641.0541
855.39	532.9008
855.568	528.96795
855.746	521.10226
855.923	619.42344
856.101	743.30813
856.279	711.84535
856.456	617.45702
856.634	560.43073
856.811	814.09938
856.989	778.70375
857.166	1124.79431
857.344	947.81619
857.521	969.44684
857.699	1120.86146
857.876	1150.35782
858.054	1382.39581
858.231	1557.40751
858.409	1860.23674
858.586	2049.01341
858.763	2224.02511
858.941	2436.39887
859.118	2813.9522
859.295	3240.66613
859.473	3696.87641
859.65	4674.18895
859.827	5360.47079
860.004	6420.37312
860.182	7415.38347
860.359	8292.40841
860.536	9086.84355
860.713	9529.28886
860.89	9556.8188
861.067	9460.46404
861.245	8624.734
861.422	8190.15438
861.599	7291.49878
861.776	6758.59798
861.953	5977.92781
862.13	5411.5978
862.307	4540.47214
862.484	4198.31443
862.661	3808.96255
862.838	3396.01359
863.015	2931.93762
863.192	2892.60915
863.369	2558.31713
863.545	2670.40328
863.722	2485.55946
863.899	2515.05581
864.076	2819.85147
864.253	3038.12449
864.43	3311.45738
864.606	3635.91727
864.783	3860.08957
864.96	4082.29544
865.137	3787.33189
865.313	3860.08957
865.49	3529.7304
865.667	3517.93186
865.843	3230.83401
866.02	3047.95661
866.197	2985.03106
866.373	2817.88505
866.55	2574.04852
866.726	2509.15654
866.903	2387.23828
867.079	2222.05869
867.256	2084.40904
867.432	2133.56963
867.609	2027.38275
867.785	1954.62508
867.962	1938.89369
868.138	2125.70393
868.315	2058.84553
868.491	2121.77109
868.667	2170.93168
868.844	2355.7755
869.02	2452.13025
869.196	2446.23098
869.373	2754.95949
869.549	2884.74345
869.725	3071.5537
869.902	3112.84859
870.078	3226.90116
870.254	3504.16689
870.43	3423.54352
870.606	3421.5771
870.783	3313.4238
870.959	3443.20776
871.135	3276.06175
871.311	3187.57269
871.487	3132.51283
871.663	2863.11279
871.839	2652.70546
872.015	2513.08939
872.191	2495.39157
872.367	2294.81637
872.543	2184.69664
872.719	2141.43532
872.895	2041.14772
873.071	2166.99883
873.247	1988.05428
873.423	2041.14772
873.599	1958.55793
873.775	2076.54334
873.95	2001.81925
874.126	2151.26744
874.302	2009.68494
874.478	2082.44261
874.654	1854.33747
874.829	1852.37105
875.005	1785.51265
875.181	1974.28931
875.357	1773.71411
875.532	1746.18417
875.708	1702.92286
875.884	1791.41192
876.059	1811.07615
876.235	1726.51994
876.41	1795.34477
876.586	2064.7448
876.761	2003.78567
876.937	2220.09227
877.113	2560.28355
877.288	2851.31425
877.464	2949.63543
877.639	3439.27491
877.814	3787.33189
877.99	3932.84724
878.165	4160.95238
878.341	4453.9495
878.516	4626.99478
878.691	4786.27509
878.867	4516.87506
879.042	4355.62832
879.217	4251.40787
879.393	4117.69106
879.568	3924.98155
879.743	3769.63408
879.919	3431.40922
880.094	3354.7187
880.269	3295.72599
880.444	3195.43838
880.619	2636.97408
880.794	2764.79161
880.97	2788.38869
881.145	2664.50401
881.32	2444.26456
881.495	2389.2047
881.67	2363.64119
881.845	2402.96966
882.02	2259.42074
882.195	2365.60762
882.37	2161.09956
882.545	2273.18571
882.72	2265.32001
882.895	2202.39445
883.07	2135.53605
883.245	2279.08498
883.42	2263.35359
883.594	2243.68935
883.769	2145.36817
883.944	2163.06598
884.119	2082.44261
884.294	1856.3039
884.469	2090.30831
884.643	1919.22945
884.818	1657.69511
884.993	1726.51994
885.168	1516.11261
885.342	1582.97101
885.517	1441.38851
885.692	1453.18706
885.866	1337.16806
886.041	1213.28337
886.215	1193.61914
886.39	961.58115
886.565	957.6483
886.739	1173.9549
886.914	1061.86876
887.088	910.45414
887.263	749.2074
887.437	804.26726
887.612	778.70375
887.786	725.61032
887.96	652.85264
888.135	603.69205
888.309	678.41615
888.484	717.74462
888.658	501.43802
888.832	450.31101
889.007	544.69934
889.181	412.94896
889.355	509.30372
889.529	562.39716
889.704	462.10955
889.878	527.00153
890.052	357.8891
890.226	446.37816
890.401	385.41903
890.575	448.34459
890.749	426.71393
890.923	471.94167
891.097	385.41903
891.271	332.32559
891.445	367.72122
891.619	397.21757
891.793	399.18399
891.967	375.58691
892.141	409.01611
892.315	399.18399
892.489	338.22486
892.663	259.56792
892.837	283.165
893.011	355.92268
893.185	373.62049
893.359	371.65406
893.533	300.86281
893.706	273.33288
893.88	310.69493
894.054	271.36646
894.228	247.76938
894.402	291.0307
894.575	192.70951
894.749	287.09785
894.923	224.17229
895.097	350.0234
895.27	289.06427
895.444	125.85111
895.617	200.57521
895.791	330.35917
895.965	322.49347
896.138	232.03799
896.312	304.79566
896.485	200.57521
896.659	289.06427
896.832	332.32559
897.006	259.56792
897.179	245.80295
897.353	208.4409
897.526	214.34017
897.7	222.20587
897.873	332.32559
898.047	104.22045
898.22	180.91097
898.393	263.50077
898.567	232.03799
898.74	212.37375
898.913	334.29202
899.087	269.40004
899.26	267.43361
899.433	287.09785
899.606	328.39274
899.78	342.15771
899.953	294.96354
900.126	304.79566
900.299	456.21028
900.472	517.16941
900.645	515.20299
900.818	432.6132
900.992	578.12854
901.165	528.96795
901.338	430.64677
901.511	471.94167
901.684	552.56504
901.857	530.93438
902.03	556.49788
902.203	422.78108
902.376	568.29643
902.549	468.00882
902.721	389.35188
902.894	544.69934
903.067	350.0234
903.24	468.00882
903.413	456.21028
903.586	487.67306
903.759	420.81465
903.931	369.68764
904.104	322.49347
904.277	245.80295
904.45	466.0424
904.622	287.09785
904.795	387.38545
904.968	399.18399
905.14	371.65406
905.313	401.15042
905.486	511.27014
905.658	446.37816
905.831	485.70663
906.003	554.53146
906.176	442.44531
906.348	536.83365
906.521	430.64677
906.693	507.33729
906.866	468.00882
907.038	436.54604
907.211	485.70663
907.383	361.82195
907.556	373.62049
907.728	373.62049
907.9	357.8891
908.073	237.93726
908.245	332.32559
908.417	259.56792
908.59	255.63507
908.762	212.37375
908.934	123.88469
909.107	210.40733
909.279	257.60149
909.451	149.4482
909.623	151.41462
909.795	78.65694
909.967	94.38833
910.14	188.77667
910.312	135.68323
910.484	88.48906
910.656	96.35476
910.828	178.94455
911	76.69052
911.172	141.5825
911.344	-19.66424
911.516	25.56351
911.688	15.73139
911.86	1.96642
912.032	100.2876
912.204	15.73139
912.376	64.89198
912.548	-17.69781
912.72	127.81754
912.891	155.34747
913.063	-68.82483
913.235	41.2949
913.407	165.17958
913.579	-21.63066
913.75	-35.39563
913.922	45.22774
914.094	60.95913
914.266	108.1533
914.437	68.82483
914.609	3.93285
914.781	47.19417
914.952	33.4292
915.124	147.48177
915.296	-43.26132
915.467	3.93285
915.639	49.16059
915.81	51.12701
915.982	19.66424
916.153	90.45549
916.325	-39.32847
916.496	-21.63066
916.668	-62.92556
916.839	39.32847
917.011	90.45549
917.182	-5.89927
917.353	27.52993
917.525	17.69781
917.696	-21.63066
917.867	43.26132
918.039	13.76497
918.21	-43.26132
918.381	-13.76497
918.553	33.4292
918.724	3.93285
918.895	17.69781
919.066	47.19417
919.237	131.75038
919.409	-78.65694
919.58	-3.93285
919.751	98.32118
919.922	72.75767
920.093	-31.46278
920.264	53.09344
920.435	-39.32847
920.606	43.26132
920.777	49.16059
920.948	-57.02628
921.119	94.38833
921.29	9.83212
921.461	-169.11243
921.632	-58.99271
921.803	-43.26132
921.974	72.75767
922.145	68.82483
922.316	94.38833
922.487	66.8584
922.657	31.46278
922.828	-100.2876
922.999	9.83212
923.17	45.22774
923.341	70.79125
923.511	139.61608
923.682	-1.96642
923.853	31.46278
924.023	53.09344
924.194	131.75038
924.365	-39.32847
924.535	-58.99271
924.706	-76.69052
924.877	55.05986
925.047	31.46278
925.218	29.49635
925.388	47.19417
925.559	-80.62337
925.729	-60.95913
925.9	96.35476
926.07	23.59708
926.241	68.82483
926.411	53.09344
926.582	-41.2949
926.752	147.48177
926.922	21.63066
927.093	-5.89927
927.263	-11.79854
927.433	102.25403
927.604	19.66424
927.774	27.52993
927.944	-98.32118
928.115	43.26132
928.285	119.95184
928.455	-23.59708
928.625	-51.12701
928.795	62.92556
928.966	-62.92556
929.136	-51.12701
929.306	-127.81754
929.476	-7.86569
929.646	33.4292
929.816	84.55622
929.986	-51.12701
930.156	-0
930.326	-49.16059
930.496	110.11972
930.666	35.39563
930.836	-19.66424
931.006	1.96642
931.176	13.76497
931.346	-33.4292
931.516	-51.12701
931.686	23.59708
931.856	161.24674
932.025	-68.82483
932.195	86.52264
932.365	106.18688
932.535	-49.16059
932.705	98.32118
932.874	35.39563
933.044	-218.27302
933.214	27.52993
933.384	72.75767
933.553	-43.26132
933.723	47.19417
933.893	139.61608
934.062	-78.65694
934.232	102.25403
934.401	-62.92556
934.571	-100.2876
934.74	17.69781
934.91	5.89927
935.079	33.4292
935.249	29.49635
935.418	139.61608
935.588	76.69052
935.757	-64.89198
935.927	11.79854
936.096	-43.26132
936.266	-15.73139
936.435	-110.11972
936.604	66.8584
936.774	-19.66424
936.943	-43.26132
937.112	64.89198
937.282	80.62337
937.451	23.59708
937.62	7.86569
937.789	-39.32847
937.958	-11.79854
938.128	17.69781
938.297	41.2949
938.466	60.95913
938.635	-68.82483
938.804	-0
938.973	86.52264
939.142	-15.73139
939.312	137.64965
939.481	-35.39563
939.65	-13.76497
939.819	41.2949
939.988	-53.09344
940.157	-39.32847
940.326	3.93285
940.494	15.73139
940.663	-15.73139
940.832	21.63066
941.001	-64.89198
941.17	62.92556
941.339	29.49635
941.508	1.96642
941.677	7.86569
941.845	29.49635
942.014	-37.36205
942.183	25.56351
942.352	-51.12701
942.52	-45.22774
942.689	-100.2876
942.858	-29.49635
943.026	78.65694
943.195	86.52264
943.364	41.2949
943.532	-17.69781
943.701	-13.76497
943.869	-53.09344
944.038	64.89198
944.206	104.22045
944.375	-27.52993
944.544	-57.02628
944.712	37.36205
944.88	-3.93285
945.049	23.59708
945.217	62.92556
945.386	3.93285
945.554	-27.52993
945.723	-55.05986
945.891	-25.56351
946.059	21.63066
946.228	19.66424
946.396	31.46278
946.564	17.69781
946.732	-25.56351
946.901	-96.35476
947.069	-58.99271
947.237	-13.76497
947.405	53.09344
947.573	11.79854
947.742	66.8584
947.91	-0
948.078	45.22774
948.246	11.79854
948.414	74.7241
948.582	3.93285
948.75	-17.69781
948.918	-13.76497
949.086	-19.66424
949.254	70.79125
949.422	169.11243
949.59	57.02628
949.758	-72.75767
949.926	-78.65694
950.094	100.2876
950.262	82.58979
950.43	13.76497
950.598	-49.16059
950.765	-84.55622
950.933	55.05986
951.101	66.8584
951.269	58.99271
951.437	-135.68323
951.604	-41.2949
951.772	100.2876
951.94	19.66424
952.107	55.05986
952.275	5.89927
952.443	-76.69052
952.61	-17.69781
952.778	-58.99271
952.946	53.09344
953.113	-17.69781
953.281	57.02628
953.448	-57.02628
953.616	7.86569
953.783	78.65694
953.951	49.16059
954.118	84.55622
954.286	-31.46278
954.453	92.42191
954.621	-108.1533
954.788	5.89927
954.955	1.96642
955.123	9.83212
955.29	-1.96642
955.457	-25.56351
955.625	53.09344
955.792	57.02628
955.959	11.79854
956.126	127.81754
956.294	33.4292
956.461	-49.16059
956.628	-31.46278
956.795	-43.26132
956.962	-13.76497
957.13	82.58979
957.297	33.4292
957.464	21.63066
957.631	-0
957.798	96.35476
957.965	51.12701
958.132	-27.52993
958.299	-66.8584
958.466	-33.4292
958.633	-74.7241
958.8	-62.92556
958.967	27.52993
959.134	-58.99271
959.301	47.19417
959.468	7.86569
959.634	76.69052
959.801	11.79854
959.968	-66.8584
960.135	60.95913
960.302	-33.4292
960.469	-13.76497
960.635	-43.26132
960.802	125.85111
960.969	-45.22774
961.135	39.32847
961.302	94.38833
961.469	-66.8584
961.635	127.81754
961.802	-23.59708
961.969	92.42191
962.135	-68.82483
962.302	66.8584
962.468	110.11972
962.635	108.1533
962.802	43.26132
962.968	-74.7241
963.135	15.73139
963.301	17.69781
963.467	-62.92556
963.634	78.65694
963.8	-11.79854
963.967	41.2949
964.133	-5.89927
964.299	64.89198
964.466	33.4292
964.632	90.45549
964.798	-7.86569
964.965	11.79854
965.131	17.69781
965.297	29.49635
965.463	35.39563
965.63	-72.75767
965.796	-27.52993
965.962	62.92556
966.128	25.56351
966.294	27.52993
966.46	-90.45549
966.627	-23.59708
966.793	-53.09344
966.959	1.96642
967.125	-70.79125
967.291	-66.8584
967.457	72.75767
967.623	-37.36205
967.789	45.22774
967.955	-60.95913
968.121	62.92556
968.287	33.4292
968.452	72.75767
968.618	17.69781
968.784	41.2949
968.95	100.2876
969.116	43.26132
969.282	90.45549
969.447	-72.75767
969.613	188.77667
969.779	-133.71681
969.945	-51.12701
970.11	-47.19417
970.276	-84.55622
970.442	13.76497
970.607	167.14601
970.773	-74.7241
970.939	-116.01899
971.104	153.38104
971.27	29.49635
971.436	-1.96642
971.601	43.26132
971.767	64.89198
971.932	23.59708
972.098	-62.92556
972.263	33.4292
972.429	-27.52993
972.594	35.39563
972.759	92.42191
972.925	5.89927
973.09	15.73139
973.256	23.59708
973.421	-62.92556
973.586	57.02628
973.752	35.39563
973.917	-49.16059
974.082	-29.49635
974.247	9.83212
974.413	29.49635
974.578	43.26132
974.743	-37.36205
974.908	-13.76497
975.074	66.8584
975.239	-74.7241
975.404	11.79854
975.569	72.75767
975.734	-94.38833
975.899	-43.26132
976.064	15.73139
976.229	-47.19417
976.394	-0
976.559	68.82483
976.724	-7.86569
976.889	53.09344
977.054	-17.69781
977.219	-5.89927
977.384	-55.05986
977.549	-41.2949
977.714	27.52993
977.879	-64.89198
978.043	-0
978.208	68.82483
978.373	-0
978.538	11.79854
978.703	98.32118
978.867	96.35476
979.032	-17.69781
979.197	-33.4292
979.362	7.86569
979.526	-35.39563
979.691	-143.54892
979.856	27.52993
980.02	39.32847
980.185	41.2949
980.349	-114.05257
980.514	-5.89927
980.678	-55.05986
980.843	21.63066
981.007	-84.55622
981.172	78.65694
981.336	-5.89927
981.501	9.83212
981.665	45.22774
981.83	-25.56351
981.994	5.89927
982.159	7.86569
982.323	-72.75767
982.487	-53.09344
982.652	88.48906
982.816	-1.96642
982.98	-13.76497
983.144	-68.82483
983.309	-55.05986
983.473	133.71681
983.637	70.79125
983.801	-66.8584
983.966	-19.66424
984.13	5.89927
984.294	33.4292
984.458	-72.75767
984.622	19.66424
984.786	11.79854
984.95	70.79125
985.114	-11.79854
985.278	37.36205
985.442	-110.11972
985.606	-106.18688
985.77	41.2949
985.934	35.39563
986.098	-31.46278
986.262	21.63066
986.426	55.05986
986.59	-74.7241
986.754	82.58979
986.918	5.89927
987.082	-88.48906
987.245	17.69781
987.409	-7.86569
987.573	23.59708
987.737	29.49635
987.9	92.42191
988.064	96.35476
988.228	45.22774
988.392	-131.75038
988.555	33.4292
988.719	66.8584
988.882	29.49635
989.046	-43.26132
989.21	-58.99271
989.373	-43.26132
989.537	39.32847
989.7	86.52264
989.864	-15.73139
990.027	-23.59708
990.191	23.59708
990.354	-96.35476
990.518	-33.4292
990.681	-64.89198
990.845	1.96642
991.008	-53.09344
991.171	-1.96642
991.335	3.93285
991.498	-21.63066
991.661	-21.63066
991.825	110.11972
991.988	51.12701
992.151	-141.5825
992.314	-64.89198
992.478	19.66424
992.641	25.56351
992.804	82.58979
992.967	-45.22774
993.13	-47.19417
993.294	47.19417
993.457	-39.32847
993.62	-11.79854
993.783	66.8584
993.946	1.96642
994.109	-25.56351
994.272	-84.55622
994.435	-43.26132
994.598	90.45549
994.761	-62.92556
994.924	-64.89198
995.087	7.86569
995.25	-35.39563
995.413	15.73139
995.575	-17.69781
995.738	-68.82483
995.901	53.09344
996.064	3.93285
996.227	-13.76497
996.39	1.96642
996.552	53.09344
996.715	92.42191
996.878	-23.59708
997.041	-5.89927
997.203	102.25403
997.366	-31.46278
997.529	104.22045
997.691	17.69781
997.854	84.55622
998.016	-33.4292
998.179	49.16059
998.342	33.4292
998.504	-53.09344
998.667	-0
998.829	62.92556
998.992	64.89198
999.154	84.55622
999.317	-25.56351
999.479	-29.49635
999.641	-151.41462
999.804	82.58979
999.966	102.25403
1000.128	13.76497
1000.291	98.32118
1000.453	-13.76497
1000.615	-78.65694
1000.778	-41.2949
1000.94	19.66424
1001.102	74.7241
1001.264	33.4292
1001.427	53.09344
1001.589	-94.38833
1001.751	-74.7241
1001.913	-94.38833
1002.075	86.52264
1002.237	60.95913
1002.4	45.22774
1002.562	47.19417
1002.724	25.56351
1002.886	33.4292
1003.048	-35.39563
1003.21	-47.19417
1003.372	-17.69781
1003.534	-17.69781
1003.696	47.19417
1003.858	-11.79854
1004.02	21.63066
1004.181	64.89198
1004.343	9.83212
1004.505	-21.63066
1004.667	-47.19417
1004.829	66.8584
1004.991	53.09344
1005.152	47.19417
1005.314	33.4292
1005.476	-53.09344
1005.638	-66.8584
1005.799	53.09344
1005.961	88.48906
1006.123	-74.7241
1006.284	-31.46278
1006.446	-11.79854
1006.608	39.32847
1006.769	49.16059
1006.931	39.32847
1007.092	-72.75767
1007.254	11.79854
1007.416	33.4292
1007.577	-7.86569
1007.739	-53.09344
1007.9	-41.2949
1008.061	-0
1008.223	-96.35476
1008.384	-57.02628
1008.546	-35.39563
1008.707	-74.7241
1008.868	-112.08615
1009.03	78.65694
1009.191	7.86569
1009.352	11.79854
1009.514	70.79125
1009.675	11.79854
1009.836	-68.82483
1009.997	-1.96642
1010.159	23.59708
1010.32	-57.02628
1010.481	47.19417
1010.642	-9.83212
1010.803	-53.09344
1010.964	-9.83212
1011.126	-64.89198
1011.287	-5.89927
1011.448	-7.86569
1011.609	35.39563
1011.77	-82.58979
1011.931	-51.12701
1012.092	31.46278
1012.253	-25.56351
1012.414	-145.51535
1012.575	39.32847
1012.736	70.79125
1012.896	49.16059
1013.057	27.52993
1013.218	78.65694
1013.379	60.95913
1013.54	-96.35476
1013.701	62.92556
1013.861	106.18688
1014.022	-96.35476
1014.183	64.89198
1014.344	-62.92556
1014.504	53.09344
1014.665	-11.79854
1014.826	82.58979
1014.986	-21.63066
1015.147	-163.21316
1015.308	45.22774
1015.468	-7.86569
1015.629	15.73139
1015.789	-92.42191
1015.95	11.79854
1016.111	51.12701
1016.271	104.22045
1016.432	-45.22774
1016.592	-39.32847
1016.752	82.58979
1016.913	86.52264
1017.073	25.56351
1017.234	43.26132
1017.394	-21.63066
1017.554	3.93285
1017.715	-29.49635
1017.875	-62.92556
1018.035	-7.86569
1018.196	9.83212
1018.356	117.98542
1018.516	-106.18688
1018.676	-60.95913
1018.837	21.63066
1018.997	100.2876
1019.157	-17.69781
1019.317	-3.93285
1019.477	-31.46278
1019.637	-23.59708
1019.798	-23.59708
1019.958	127.81754
1020.118	-7.86569
1020.278	-1.96642
1020.438	13.76497
1020.598	-41.2949
1020.758	-11.79854
1020.918	13.76497
1021.078	151.41462
1021.238	104.22045
1021.397	57.02628
1021.557	-23.59708
1021.717	125.85111
1021.877	19.66424
1022.037	-102.25403
1022.197	-94.38833
1022.357	33.4292
1022.516	-116.01899
1022.676	-23.59708
1022.836	-37.36205
1022.996	-13.76497
1023.155	41.2949
1023.315	-15.73139
1023.475	-104.22045
1023.634	-27.52993
1023.794	-135.68323
1023.954	-39.32847
1024.113	80.62337
1024.273	-21.63066
1024.432	-55.05986
1024.592	196.64236
1024.751	-9.83212
1024.911	19.66424
1025.07	33.4292
1025.23	41.2949
1025.389	108.1533
1025.549	-90.45549
1025.708	-27.52993
1025.868	92.42191
1026.027	21.63066
1026.186	11.79854
1026.346	-141.5825
1026.505	-15.73139
1026.664	-1.96642
1026.823	21.63066
1026.983	27.52993
1027.142	33.4292
1027.301	-108.1533
1027.46	88.48906
1027.62	41.2949
1027.779	23.59708
1027.938	-90.45549
1028.097	37.36205
1028.256	-31.46278
1028.415	-70.79125
1028.574	-1.96642
1028.733	-39.32847
1028.892	-76.69052
1029.051	-41.2949
1029.21	-21.63066
1029.369	62.92556
1029.528	-5.89927
1029.687	-11.79854
1029.846	5.89927
1030.005	45.22774
1030.164	-68.82483
1030.323	-25.56351
1030.482	47.19417
1030.641	55.05986
1030.799	82.58979
1030.958	-33.4292
1031.117	-11.79854
1031.276	76.69052
1031.435	29.49635
1031.593	-15.73139
1031.752	-58.99271
1031.911	78.65694
1032.069	-47.19417
1032.228	-58.99271
1032.387	-1.96642
1032.545	47.19417
1032.704	116.01899
1032.862	-5.89927
1033.021	-82.58979
1033.179	-25.56351
1033.338	84.55622
1033.496	-141.5825
1033.655	53.09344
1033.813	27.52993
1033.972	49.16059
1034.13	53.09344
1034.289	25.56351
1034.447	-84.55622
1034.605	-23.59708
1034.764	-60.95913
1034.922	-58.99271
1035.08	7.86569
1035.239	37.36205
1035.397	13.76497
1035.555	-51.12701
1035.713	-19.66424
1035.872	45.22774
1036.03	51.12701
1036.188	13.76497
1036.346	239.90368
1036.504	102.25403
1036.662	-141.5825
1036.821	114.05257
1036.979	55.05986
1037.137	35.39563
1037.295	-49.16059
1037.453	108.1533
1037.611	31.46278
1037.769	41.2949
1037.927	145.51535
1038.085	1.96642
1038.243	51.12701
1038.401	25.56351
1038.559	25.56351
