Data from LiYF4_Nd_2.5 pc_200 C_Subt2__0__19-47-39-161.txt Node

Date: Thu May 14 19:47:39 CEST 2026
User: NP.5066655
Spectrometer: FLMT06117
Trigger mode: 0
Integration Time (sec): 2.500000E-1
Scans to average: 1
Electric dark correction enabled: true
Nonlinearity correction enabled: false
Boxcar width: 0
XAxis mode: Wavelengths
Number of Pixels in Spectrum: 3648
>>>>>Begin Spectral Data<<<<<
346.633	-6.06314
346.852	-6.06314
347.071	-6.06314
347.29	-51.29088
347.51	70.62738
347.729	-88.65293
347.948	-41.45876
348.167	-51.29088
348.386	-67.02227
348.606	-13.92883
348.825	104.05658
349.044	68.66096
349.263	-80.78724
349.482	41.13103
349.701	31.29891
349.92	27.36606
350.139	-61.123
350.358	-41.45876
350.577	15.56752
350.796	-15.89526
351.015	100.12374
351.234	86.35877
351.453	45.06387
351.672	-67.02227
351.891	-17.86168
352.11	33.26533
352.329	-11.96241
352.548	25.39964
352.767	-102.4179
352.986	45.06387
353.204	-19.8281
353.423	-37.52592
353.642	-149.61206
353.861	-137.81352
354.08	-131.91425
354.298	-33.59307
354.517	-39.49234
354.736	66.69453
354.955	-65.05585
355.173	-86.68651
355.392	-29.66022
355.611	-23.76095
355.829	-9.99599
356.048	45.06387
356.267	-63.08942
356.485	-23.76095
356.704	-0.16387
356.922	-37.52592
357.141	56.86242
357.36	48.99672
357.578	-63.08942
357.797	-47.35804
358.015	-47.35804
358.234	-74.88797
358.452	-35.55949
358.671	-112.25002
358.889	76.52665
359.108	-0.16387
359.326	41.13103
359.544	58.82884
359.763	-9.99599
359.981	-65.05585
360.2	-31.62665
360.418	-106.35074
360.636	-137.81352
360.855	25.39964
361.073	-13.92883
361.291	-43.42519
361.509	-0.16387
361.728	62.76169
361.946	-23.76095
362.164	11.63467
362.382	-15.89526
362.601	-86.68651
362.819	-106.35074
363.037	-65.05585
363.255	1.80255
363.473	15.56752
363.691	62.76169
363.909	107.98943
364.128	-53.25731
364.346	23.43321
364.564	-51.29088
364.782	-100.45147
365	29.33249
365.218	-31.62665
365.436	-90.61936
365.654	-82.75366
365.872	58.82884
366.09	-65.05585
366.308	121.7544
366.526	-15.89526
366.743	-45.39161
366.961	96.19089
367.179	-57.19015
367.397	56.86242
367.615	-33.59307
367.833	35.23176
368.051	145.35148
368.268	41.13103
368.486	74.56023
368.704	-108.31717
368.922	-90.61936
369.14	-6.06314
369.357	-55.22373
369.575	-72.92154
369.793	-82.75366
370.01	-88.65293
370.228	31.29891
370.446	39.1646
370.663	-139.77995
370.881	35.23176
371.099	60.79526
371.316	-41.45876
371.534	-76.85439
371.751	-126.01498
371.969	62.76169
372.186	21.46679
372.404	-53.25731
372.621	74.56023
372.839	-82.75366
373.056	33.26533
373.274	-45.39161
373.491	-4.09672
373.709	-8.02956
373.926	-35.55949
374.144	86.35877
374.361	35.23176
374.578	-82.75366
374.796	3.76898
375.013	39.1646
375.23	1.80255
375.448	56.86242
375.665	-13.92883
375.882	47.0303
376.099	-29.66022
376.317	7.70183
376.534	62.76169
376.751	-35.55949
376.968	48.99672
377.186	82.42592
377.403	-45.39161
377.62	165.01572
377.837	-80.78724
378.054	11.63467
378.271	21.46679
378.488	-51.29088
378.705	19.50037
378.923	-29.66022
379.14	-45.39161
379.357	9.66825
379.574	-108.31717
379.791	-9.99599
380.008	-126.01498
380.225	-19.8281
380.442	-4.09672
380.659	-82.75366
380.875	37.19818
381.092	-27.6938
381.309	17.53394
381.526	19.50037
381.743	-39.49234
381.96	72.59381
382.177	31.29891
382.394	7.70183
382.61	43.09745
382.827	-31.62665
383.044	-31.62665
383.261	-82.75366
383.477	21.46679
383.694	-92.58578
383.911	-110.28359
384.128	-4.09672
384.344	92.25804
384.561	-124.04856
384.778	39.1646
384.994	-39.49234
385.211	15.56752
385.428	-57.19015
385.644	-67.02227
385.861	92.25804
386.077	-51.29088
386.294	-19.8281
386.51	-17.86168
386.727	13.6011
386.943	-127.9814
387.16	-6.06314
387.376	-8.02956
387.593	29.33249
387.809	-92.58578
388.026	-41.45876
388.242	-63.08942
388.459	50.96315
388.675	33.26533
388.891	35.23176
389.108	33.26533
389.324	-39.49234
389.54	72.59381
389.757	-0.16387
389.973	70.62738
390.189	-19.8281
390.405	-202.7055
390.622	15.56752
390.838	86.35877
391.054	-139.77995
391.27	45.06387
391.487	-15.89526
391.703	-55.22373
391.919	17.53394
392.135	66.69453
392.351	68.66096
392.567	-104.38432
392.783	-31.62665
393	-8.02956
393.216	-90.61936
393.432	1.80255
393.648	-65.05585
393.864	-70.95512
394.08	-4.09672
394.296	-15.89526
394.512	-27.6938
394.728	-9.99599
394.944	-94.5522
395.16	3.76898
395.375	33.26533
395.591	92.25804
395.807	5.7354
396.023	-98.48505
396.239	-88.65293
396.455	-63.08942
396.671	72.59381
396.886	-53.25731
397.102	82.42592
397.318	-6.06314
397.534	-33.59307
397.749	-59.15658
397.965	66.69453
398.181	27.36606
398.397	-11.96241
398.612	-65.05585
398.828	-55.22373
399.044	-67.02227
399.259	-124.04856
399.475	176.81426
399.691	-29.66022
399.906	-25.72738
400.122	-37.52592
400.337	-90.61936
400.553	-23.76095
400.768	-43.42519
400.984	37.19818
401.199	-137.81352
401.415	-27.6938
401.63	-6.06314
401.846	-13.92883
402.061	-49.32446
402.277	-6.06314
402.492	21.46679
402.708	-39.49234
402.923	-31.62665
403.138	-2.13029
403.354	-47.35804
403.569	37.19818
403.784	111.92228
404	-163.37703
404.215	-6.06314
404.43	-51.29088
404.645	-21.79453
404.861	11.63467
405.076	-43.42519
405.291	7.70183
405.506	-59.15658
405.722	7.70183
405.937	5.7354
406.152	-2.13029
406.367	-92.58578
406.582	-63.08942
406.797	94.22447
407.012	-104.38432
407.227	-124.04856
407.442	-11.96241
407.658	-102.4179
407.873	-41.45876
408.088	17.53394
408.303	58.82884
408.518	-124.04856
408.733	-47.35804
408.947	-68.9887
409.162	-137.81352
409.377	-33.59307
409.592	47.0303
409.807	17.53394
410.022	-145.67922
410.237	-68.9887
410.452	9.66825
410.667	-19.8281
410.881	-145.67922
411.096	-15.89526
411.311	82.42592
411.526	15.56752
411.741	-108.31717
411.955	-122.08213
412.17	-9.99599
412.385	35.23176
412.599	-139.77995
412.814	50.96315
413.029	9.66825
413.243	-45.39161
413.458	-47.35804
413.673	35.23176
413.887	58.82884
414.102	-145.67922
414.316	-0.16387
414.531	74.56023
414.746	-0.16387
414.96	7.70183
415.175	-41.45876
415.389	48.99672
415.604	58.82884
415.818	-27.6938
416.032	-53.25731
416.247	-6.06314
416.461	-35.55949
416.676	-84.72008
416.89	35.23176
417.105	-0.16387
417.319	62.76169
417.533	7.70183
417.748	-55.22373
417.962	-49.32446
418.176	52.92957
418.39	-39.49234
418.605	-35.55949
418.819	-21.79453
419.033	41.13103
419.247	-65.05585
419.462	-29.66022
419.676	-33.59307
419.89	-31.62665
420.104	39.1646
420.318	-33.59307
420.532	-126.01498
420.747	21.46679
420.961	-173.20915
421.175	-80.78724
421.389	-96.51863
421.603	-86.68651
421.817	25.39964
422.031	-70.95512
422.245	-53.25731
422.459	-2.13029
422.673	43.09745
422.887	-106.35074
423.101	-65.05585
423.315	-94.5522
423.529	-53.25731
423.743	121.7544
423.956	58.82884
424.17	-65.05585
424.384	25.39964
424.598	-0.16387
424.812	19.50037
425.026	-49.32446
425.239	52.92957
425.453	-8.02956
425.667	-51.29088
425.881	94.22447
426.095	-88.65293
426.308	-65.05585
426.522	-13.92883
426.736	-8.02956
426.949	82.42592
427.163	17.53394
427.377	-61.123
427.59	-47.35804
427.804	45.06387
428.017	-84.72008
428.231	58.82884
428.445	-137.81352
428.658	-33.59307
428.872	-61.123
429.085	86.35877
429.299	33.26533
429.512	-82.75366
429.726	-163.37703
429.939	-55.22373
430.153	-37.52592
430.366	-86.68651
430.579	-15.89526
430.793	-86.68651
431.006	-19.8281
431.22	-67.02227
431.433	39.1646
431.646	-51.29088
431.86	115.85512
432.073	-43.42519
432.286	-33.59307
432.499	-6.06314
432.713	-33.59307
432.926	-57.19015
433.139	-43.42519
433.352	-131.91425
433.565	113.8887
433.779	-53.25731
433.992	-29.66022
434.205	19.50037
434.418	-78.82081
434.631	43.09745
434.844	-0.16387
435.057	-8.02956
435.271	-96.51863
435.484	11.63467
435.697	-159.44418
435.91	17.53394
436.123	37.19818
436.336	1.80255
436.549	-27.6938
436.762	48.99672
436.975	-8.02956
437.187	17.53394
437.4	-4.09672
437.613	68.66096
437.826	-31.62665
438.039	159.11644
438.252	15.56752
438.465	62.76169
438.678	-72.92154
438.89	-13.92883
439.103	11.63467
439.316	35.23176
439.529	-80.78724
439.741	-13.92883
439.954	11.63467
440.167	-100.45147
440.38	-106.35074
440.592	25.39964
440.805	-27.6938
441.018	-6.06314
441.23	31.29891
441.443	41.13103
441.656	-23.76095
441.868	-86.68651
442.081	86.35877
442.293	-23.76095
442.506	50.96315
442.718	19.50037
442.931	-31.62665
443.143	5.7354
443.356	41.13103
443.568	94.22447
443.781	-88.65293
443.993	-67.02227
444.206	48.99672
444.418	58.82884
444.63	-53.25731
444.843	-29.66022
445.055	-19.8281
445.268	-0.16387
445.48	-31.62665
445.692	54.89599
445.904	129.62009
446.117	-102.4179
446.329	-4.09672
446.541	-25.72738
446.754	3.76898
446.966	-163.37703
447.178	-17.86168
447.39	-9.99599
447.602	25.39964
447.815	58.82884
448.027	-129.94783
448.239	-53.25731
448.451	60.79526
448.663	43.09745
448.875	-122.08213
449.087	86.35877
449.299	74.56023
449.511	37.19818
449.723	52.92957
449.935	-0.16387
450.147	47.0303
450.359	-49.32446
450.571	25.39964
450.783	-17.86168
450.995	-13.92883
451.207	-59.15658
451.419	104.05658
451.631	90.29162
451.843	13.6011
452.055	-31.62665
452.266	-49.32446
452.478	-55.22373
452.69	15.56752
452.902	-72.92154
453.114	-8.02956
453.325	-108.31717
453.537	-27.6938
453.749	27.36606
453.961	-17.86168
454.172	-8.02956
454.384	-63.08942
454.596	-25.72738
454.807	-114.21644
455.019	68.66096
455.23	11.63467
455.442	-102.4179
455.654	48.99672
455.865	31.29891
456.077	41.13103
456.288	39.1646
456.5	62.76169
456.711	-74.88797
456.923	-82.75366
457.134	-11.96241
457.346	-2.13029
457.557	-72.92154
457.769	-9.99599
457.98	31.29891
458.192	11.63467
458.403	37.19818
458.614	25.39964
458.826	9.66825
459.037	21.46679
459.248	13.6011
459.46	-65.05585
459.671	82.42592
459.882	-15.89526
460.094	-9.99599
460.305	-92.58578
460.516	-57.19015
460.727	-137.81352
460.938	94.22447
461.15	56.86242
461.361	47.0303
461.572	33.26533
461.783	25.39964
461.994	19.50037
462.205	90.29162
462.416	3.76898
462.627	-47.35804
462.839	-11.96241
463.05	21.46679
463.261	-31.62665
463.472	-204.67193
463.683	-104.38432
463.894	-29.66022
464.105	56.86242
464.316	-63.08942
464.526	98.15731
464.737	45.06387
464.948	15.56752
465.159	58.82884
465.37	23.43321
465.581	-43.42519
465.792	-100.45147
466.003	-116.18286
466.213	-35.55949
466.424	45.06387
466.635	-61.123
466.846	62.76169
467.057	-31.62665
467.267	-33.59307
467.478	9.66825
467.689	39.1646
467.899	-139.77995
468.11	-21.79453
468.321	-49.32446
468.531	-74.88797
468.742	-126.01498
468.953	-31.62665
469.163	47.0303
469.374	-29.66022
469.584	-13.92883
469.795	-151.57849
470.005	-63.08942
470.216	-33.59307
470.426	-86.68651
470.637	27.36606
470.847	52.92957
471.058	-21.79453
471.268	76.52665
471.479	5.7354
471.689	-4.09672
471.9	17.53394
472.11	-86.68651
472.32	-37.52592
472.531	56.86242
472.741	76.52665
472.951	-35.55949
473.162	-59.15658
473.372	-35.55949
473.582	-114.21644
473.792	29.33249
474.003	-63.08942
474.213	-70.95512
474.423	-23.76095
474.633	39.1646
474.843	-92.58578
475.054	-15.89526
475.264	-45.39161
475.474	-135.8471
475.684	31.29891
475.894	-137.81352
476.104	-33.59307
476.314	-98.48505
476.524	80.4595
476.734	11.63467
476.944	-19.8281
477.154	-65.05585
477.364	-59.15658
477.574	-27.6938
477.784	7.70183
477.994	-55.22373
478.204	13.6011
478.414	23.43321
478.624	-33.59307
478.834	-84.72008
479.044	50.96315
479.254	-2.13029
479.463	3.76898
479.673	5.7354
479.883	-67.02227
480.093	41.13103
480.303	80.4595
480.512	-15.89526
480.722	-41.45876
480.932	-57.19015
481.142	3.76898
481.351	54.89599
481.561	-17.86168
481.771	-29.66022
481.98	-65.05585
482.19	56.86242
482.399	-106.35074
482.609	52.92957
482.819	-35.55949
483.028	33.26533
483.238	27.36606
483.447	-29.66022
483.657	-29.66022
483.866	52.92957
484.076	31.29891
484.285	98.15731
484.495	58.82884
484.704	11.63467
484.914	64.72811
485.123	-9.99599
485.332	-45.39161
485.542	-100.45147
485.751	29.33249
485.961	-31.62665
486.17	-57.19015
486.379	-23.76095
486.589	-15.89526
486.798	25.39964
487.007	-63.08942
487.216	-2.13029
487.426	3.76898
487.635	-4.09672
487.844	-110.28359
488.053	-47.35804
488.262	84.39235
488.472	54.89599
488.681	11.63467
488.89	94.22447
489.099	-23.76095
489.308	21.46679
489.517	-35.55949
489.726	-23.76095
489.935	-19.8281
490.144	-72.92154
490.353	-41.45876
490.562	31.29891
490.771	33.26533
490.98	82.42592
491.189	-25.72738
491.398	-53.25731
491.607	21.46679
491.816	19.50037
492.025	19.50037
492.234	-2.13029
492.443	-129.94783
492.652	-65.05585
492.86	39.1646
493.069	-17.86168
493.278	68.66096
493.487	-90.61936
493.696	-116.18286
493.904	78.49308
494.113	5.7354
494.322	76.52665
494.53	-39.49234
494.739	-63.08942
494.948	-63.08942
495.156	25.39964
495.365	-37.52592
495.574	-106.35074
495.782	-31.62665
495.991	107.98943
496.2	-51.29088
496.408	98.15731
496.617	-126.01498
496.825	-72.92154
497.034	13.6011
497.242	-39.49234
497.451	19.50037
497.659	-43.42519
497.868	-57.19015
498.076	-80.78724
498.285	1.80255
498.493	-27.6938
498.701	-86.68651
498.91	33.26533
499.118	-9.99599
499.326	-208.60477
499.535	-0.16387
499.743	43.09745
499.951	-51.29088
500.16	-92.58578
500.368	-19.8281
500.576	-37.52592
500.784	-41.45876
500.993	17.53394
501.201	11.63467
501.409	-0.16387
501.617	-51.29088
501.825	-6.06314
502.034	-15.89526
502.242	-59.15658
502.45	-204.67193
502.658	-133.88067
502.866	-4.09672
503.074	3.76898
503.282	19.50037
503.49	-33.59307
503.698	35.23176
503.906	-151.57849
504.114	23.43321
504.322	-43.42519
504.53	-53.25731
504.738	43.09745
504.946	-100.45147
505.154	-90.61936
505.362	-13.92883
505.57	-228.26901
505.777	-27.6938
505.985	-23.76095
506.193	-8.02956
506.401	19.50037
506.609	-9.99599
506.816	5.7354
507.024	-15.89526
507.232	-49.32446
507.44	64.72811
507.647	-45.39161
507.855	21.46679
508.063	106.02301
508.271	-80.78724
508.478	-70.95512
508.686	-55.22373
508.893	17.53394
509.101	1.80255
509.309	29.33249
509.516	-43.42519
509.724	-35.55949
509.931	-157.47776
510.139	-47.35804
510.346	72.59381
510.554	3.76898
510.761	-49.32446
510.969	-104.38432
511.176	-86.68651
511.384	-63.08942
511.591	1.80255
511.799	-65.05585
512.006	-45.39161
512.213	-11.96241
512.421	-41.45876
512.628	-43.42519
512.835	-37.52592
513.043	3.76898
513.25	17.53394
513.457	88.32519
513.664	74.56023
513.872	113.8887
514.079	-51.29088
514.286	70.62738
514.493	-59.15658
514.701	-57.19015
514.908	-67.02227
515.115	-104.38432
515.322	141.41863
515.529	72.59381
515.736	1.80255
515.943	-118.14929
516.15	17.53394
516.357	-157.47776
516.564	-118.14929
516.772	23.43321
516.979	-17.86168
517.186	82.42592
517.392	31.29891
517.599	94.22447
517.806	-102.4179
518.013	-33.59307
518.22	111.92228
518.427	78.49308
518.634	-11.96241
518.841	-45.39161
519.048	-116.18286
519.255	-102.4179
519.461	-49.32446
519.668	15.56752
519.875	90.29162
520.082	82.42592
520.289	-45.39161
520.495	-76.85439
520.702	-159.44418
520.909	-4.09672
521.115	-116.18286
521.322	-90.61936
521.529	-51.29088
521.735	-68.9887
521.942	-9.99599
522.149	-11.96241
522.355	29.33249
522.562	-137.81352
522.768	-55.22373
522.975	-41.45876
523.181	-31.62665
523.388	-96.51863
523.595	-126.01498
523.801	80.4595
524.007	-37.52592
524.214	15.56752
524.42	-68.9887
524.627	47.0303
524.833	-55.22373
525.04	-4.09672
525.246	-55.22373
525.452	35.23176
525.659	-33.59307
525.865	7.70183
526.071	41.13103
526.278	-9.99599
526.484	27.36606
526.69	5.7354
526.896	-68.9887
527.103	50.96315
527.309	41.13103
527.515	84.39235
527.721	-72.92154
527.927	-11.96241
528.134	70.62738
528.34	3.76898
528.546	-13.92883
528.752	37.19818
528.958	-33.59307
529.164	157.15002
529.37	210.24346
529.576	479.64349
529.782	737.24499
529.988	713.64791
530.194	821.8012
530.4	517.00554
530.606	373.45662
530.812	241.70624
531.018	225.97485
531.224	135.51936
531.43	80.4595
531.636	-6.06314
531.842	48.99672
532.048	182.71353
532.253	-8.02956
532.459	23.43321
532.665	35.23176
532.871	86.35877
533.077	-39.49234
533.282	94.22447
533.488	129.62009
533.694	153.21717
533.9	241.70624
534.105	377.38947
534.311	298.73252
534.517	210.24346
534.722	363.6245
534.928	399.02013
535.133	345.92669
535.339	314.46391
535.545	430.4829
535.75	412.78509
535.956	300.69895
536.161	316.43033
536.367	391.15443
536.572	430.4829
536.778	408.85224
536.983	467.84495
537.189	385.25516
537.394	387.22158
537.6	399.02013
537.805	430.4829
538.01	351.82596
538.216	292.83325
538.421	424.58363
538.627	363.6245
538.832	332.16172
539.037	509.13985
539.242	397.0537
539.448	440.31502
539.653	341.99384
539.858	255.4712
540.064	351.82596
540.269	418.68436
540.474	251.53835
540.679	379.35589
540.884	338.06099
541.089	245.63908
541.295	341.99384
541.5	416.71794
541.705	440.31502
541.91	369.52377
542.115	491.44204
542.32	420.65079
542.525	418.68436
542.73	497.34131
542.935	412.78509
543.14	363.6245
543.345	414.75152
543.55	365.59092
543.755	416.71794
543.96	428.51648
544.165	369.52377
544.37	347.89311
544.575	436.38218
544.78	330.1953
544.984	438.3486
545.189	379.35589
545.394	459.97926
545.599	526.83766
545.804	318.39676
546.008	513.0727
546.213	330.1953
546.418	493.40846
546.623	454.07999
546.827	399.02013
547.032	420.65079
547.237	487.50919
547.441	450.14714
547.646	391.15443
547.851	489.47561
548.055	406.88582
548.26	518.97197
548.464	499.30773
548.669	418.68436
548.874	503.24058
549.078	418.68436
549.283	458.01283
549.487	340.02742
549.692	408.85224
549.896	355.75881
550.101	397.0537
550.305	416.71794
550.509	412.78509
550.714	607.46103
550.918	361.65808
551.123	489.47561
551.327	499.30773
551.531	526.83766
551.736	404.9194
551.94	426.55006
552.144	463.91211
552.349	436.38218
552.553	442.28145
552.757	381.32231
552.961	487.50919
553.165	363.6245
553.37	493.40846
553.574	444.24787
553.778	579.9311
553.982	530.77051
554.186	613.3603
554.39	501.27415
554.595	393.12086
554.799	481.60992
555.003	518.97197
555.207	554.36759
555.411	473.74422
555.615	487.50919
555.819	444.24787
556.023	399.02013
556.227	542.56905
556.431	566.16613
556.635	446.21429
556.839	497.34131
557.043	548.46832
557.246	430.4829
557.45	520.93839
557.654	501.27415
557.858	483.57634
558.062	399.02013
558.266	489.47561
558.469	593.69606
558.673	422.61721
558.877	477.67707
559.081	634.99096
559.285	393.12086
559.488	444.24787
559.692	690.05082
559.896	501.27415
560.099	517.00554
560.303	450.14714
560.507	536.66978
560.71	572.0654
560.914	517.00554
561.117	682.18513
561.321	550.43475
561.525	562.23329
561.728	595.66249
561.932	603.52818
562.135	556.33402
562.339	495.37488
562.542	575.99825
562.746	552.40117
562.949	631.05811
563.152	493.40846
563.356	591.72964
563.559	589.76322
563.763	522.90481
563.966	491.44204
564.169	595.66249
564.373	629.09169
564.576	515.03912
564.779	528.80409
564.983	638.92381
565.186	587.79679
565.389	615.32672
565.592	536.66978
565.796	495.37488
565.999	558.30044
566.202	564.19971
566.405	577.96468
566.608	538.6362
566.812	593.69606
567.015	528.80409
567.218	615.32672
567.421	692.01725
567.624	513.0727
567.827	666.45374
568.03	605.49461
568.233	656.62162
568.436	625.15884
568.639	566.16613
568.842	540.60263
569.045	587.79679
569.248	489.47561
569.451	636.95738
569.654	1018.44357
569.857	1405.82902
570.06	1987.89041
570.263	2619.11239
570.465	2748.89635
570.668	2463.76493
570.871	1830.57652
571.074	1421.56041
571.277	849.33114
571.479	723.48002
571.682	754.9428
571.885	725.44645
572.088	532.73693
572.29	678.25228
572.493	662.52089
572.696	593.69606
572.898	754.9428
573.101	552.40117
573.304	581.89752
573.506	483.57634
573.709	703.81579
573.911	648.75593
574.114	680.2187
574.317	568.13256
574.519	574.03183
574.722	583.86395
574.924	538.6362
575.127	568.13256
575.329	601.56176
575.532	589.76322
575.734	782.47273
575.936	570.09898
576.139	625.15884
576.341	546.5019
576.544	585.83037
576.746	558.30044
576.948	595.66249
577.151	613.3603
577.353	707.74863
577.555	697.91652
577.757	583.86395
577.96	540.60263
578.162	625.15884
578.364	662.52089
578.566	513.0727
578.769	550.43475
578.971	776.57346
579.173	684.15155
579.375	574.03183
579.577	758.87565
579.779	636.95738
579.981	650.72235
580.184	668.42016
580.386	615.32672
580.588	729.37929
580.79	540.60263
580.992	697.91652
581.194	599.59534
581.396	574.03183
581.598	678.25228
581.8	721.5136
582.002	705.78221
582.203	625.15884
582.405	625.15884
582.607	656.62162
582.809	579.9311
583.011	607.46103
583.213	579.9311
583.415	646.7895
583.617	605.49461
583.818	536.66978
584.02	684.15155
584.222	693.98367
584.424	625.15884
584.625	461.94568
584.827	644.82308
585.029	642.85666
585.23	589.76322
585.432	599.59534
585.634	709.71506
585.835	739.21141
586.037	583.86395
586.239	693.98367
586.44	625.15884
586.642	660.55447
586.843	664.48732
587.045	589.76322
587.246	688.0844
587.448	660.55447
587.649	613.3603
587.851	749.04353
588.052	585.83037
588.254	599.59534
588.455	534.70336
588.657	613.3603
588.858	680.2187
589.059	570.09898
589.261	644.82308
589.462	530.77051
589.663	570.09898
589.865	511.10627
590.066	764.77492
590.267	583.86395
590.468	682.18513
590.67	682.18513
590.871	650.72235
591.072	633.02454
591.273	613.3603
591.475	690.05082
591.676	615.32672
591.877	662.52089
592.078	690.05082
592.279	688.0844
592.48	674.31943
592.681	703.81579
592.882	581.89752
593.083	690.05082
593.284	652.68877
593.485	670.38659
593.686	631.05811
593.887	654.6552
594.088	697.91652
594.289	666.45374
594.49	475.71065
594.691	695.95009
594.892	546.5019
595.093	623.19242
595.294	631.05811
595.495	660.55447
595.696	648.75593
595.896	564.19971
596.097	574.03183
596.298	672.35301
596.499	634.99096
596.7	644.82308
596.9	701.84936
597.101	546.5019
597.302	638.92381
597.502	658.58804
597.703	705.78221
597.904	585.83037
598.104	599.59534
598.305	605.49461
598.506	591.72964
598.706	772.64061
598.907	577.96468
599.107	633.02454
599.308	546.5019
599.508	550.43475
599.709	605.49461
599.909	690.05082
600.11	534.70336
600.31	465.87853
600.511	599.59534
600.711	725.44645
600.912	690.05082
601.112	741.17784
601.313	609.42745
601.513	589.76322
601.713	664.48732
601.914	670.38659
602.114	692.01725
602.314	668.42016
602.515	638.92381
602.715	672.35301
602.915	692.01725
603.115	650.72235
603.316	701.84936
603.516	526.83766
603.716	719.54718
603.916	595.66249
604.116	749.04353
604.316	574.03183
604.517	634.99096
604.717	609.42745
604.917	583.86395
605.117	621.226
605.317	568.13256
605.517	595.66249
605.717	577.96468
605.917	680.2187
606.117	672.35301
606.317	546.5019
606.517	509.13985
606.717	670.38659
606.917	619.25957
607.117	678.25228
607.317	666.45374
607.516	678.25228
607.716	621.226
607.916	619.25957
608.116	589.76322
608.316	591.72964
608.516	577.96468
608.715	670.38659
608.915	737.24499
609.115	660.55447
609.315	680.2187
609.514	739.21141
609.714	617.29315
609.914	717.58075
610.114	780.50631
610.313	680.2187
610.513	688.0844
610.712	705.78221
610.912	554.36759
611.112	574.03183
611.311	825.73405
611.511	607.46103
611.71	575.99825
611.91	646.7895
612.109	656.62162
612.309	572.0654
612.508	621.226
612.708	715.61433
612.907	562.23329
613.107	617.29315
613.306	599.59534
613.505	599.59534
613.705	613.3603
613.904	601.56176
614.104	485.54277
614.303	699.88294
614.502	538.6362
614.702	599.59534
614.901	542.56905
615.1	686.11797
615.299	591.72964
615.499	623.19242
615.698	566.16613
615.897	731.34572
616.096	695.95009
616.295	601.56176
616.494	518.97197
616.694	623.19242
616.893	475.71065
617.092	705.78221
617.291	703.81579
617.49	540.60263
617.689	404.9194
617.888	747.07711
618.087	493.40846
618.286	589.76322
618.485	536.66978
618.684	650.72235
618.883	560.26686
619.082	434.41575
619.281	646.7895
619.48	629.09169
619.679	627.12527
619.878	585.83037
620.076	633.02454
620.275	566.16613
620.474	684.15155
620.673	489.47561
620.872	686.11797
621.07	534.70336
621.269	611.39388
621.468	459.97926
621.667	518.97197
621.865	550.43475
622.064	534.70336
622.263	615.32672
622.461	422.61721
622.66	493.40846
622.859	589.76322
623.057	658.58804
623.256	597.62891
623.455	587.79679
623.653	591.72964
623.852	613.3603
624.05	505.207
624.249	491.44204
624.447	658.58804
624.646	589.76322
624.844	528.80409
625.043	566.16613
625.241	566.16613
625.439	572.0654
625.638	615.32672
625.836	648.75593
626.035	568.13256
626.233	534.70336
626.431	524.87124
626.63	475.71065
626.828	566.16613
627.026	648.75593
627.225	507.17343
627.423	603.52818
627.621	444.24787
627.819	585.83037
628.017	513.0727
628.216	583.86395
628.414	638.92381
628.612	530.77051
628.81	507.17343
629.008	428.51648
629.206	487.50919
629.404	538.6362
629.602	489.47561
629.801	623.19242
629.999	601.56176
630.197	524.87124
630.395	442.28145
630.593	625.15884
630.791	550.43475
630.989	444.24787
631.187	572.0654
631.384	487.50919
631.582	536.66978
631.78	585.83037
631.978	395.08728
632.176	528.80409
632.374	575.99825
632.572	530.77051
632.769	436.38218
632.967	581.89752
633.165	436.38218
633.363	515.03912
633.561	430.4829
633.758	595.66249
633.956	546.5019
634.154	436.38218
634.351	489.47561
634.549	583.86395
634.747	430.4829
634.944	560.26686
635.142	475.71065
635.34	459.97926
635.537	436.38218
635.735	552.40117
635.932	546.5019
636.13	459.97926
636.327	471.7778
636.525	461.94568
636.722	617.29315
636.92	522.90481
637.117	546.5019
637.315	503.24058
637.512	387.22158
637.709	477.67707
637.907	452.11356
638.104	483.57634
638.302	406.88582
638.499	503.24058
638.696	316.43033
638.894	542.56905
639.091	542.56905
639.288	493.40846
639.485	377.38947
639.683	558.30044
639.88	515.03912
640.077	538.6362
640.274	501.27415
640.471	552.40117
640.669	558.30044
640.866	562.23329
641.063	426.55006
641.26	265.30332
641.457	546.5019
641.654	430.4829
641.851	373.45662
642.048	349.85954
642.245	371.4902
642.442	334.12815
642.639	469.81138
642.836	469.81138
643.033	475.71065
643.23	471.7778
643.427	477.67707
643.624	410.81867
643.821	324.29603
644.018	328.22888
644.215	365.59092
644.411	422.61721
644.608	558.30044
644.805	412.78509
645.002	422.61721
645.199	310.53106
645.395	430.4829
645.592	365.59092
645.789	611.39388
645.986	347.89311
646.182	471.7778
646.379	430.4829
646.576	489.47561
646.772	477.67707
646.969	491.44204
647.166	497.34131
647.362	454.07999
647.559	385.25516
647.755	501.27415
647.952	522.90481
648.148	393.12086
648.345	493.40846
648.541	452.11356
648.738	402.95297
648.934	550.43475
649.131	575.99825
649.327	469.81138
649.524	501.27415
649.72	436.38218
649.916	330.1953
650.113	436.38218
650.309	481.60992
650.506	399.02013
650.702	391.15443
650.898	493.40846
651.094	361.65808
651.291	475.71065
651.487	477.67707
651.683	446.21429
651.879	351.82596
652.076	513.0727
652.272	452.11356
652.468	355.75881
652.664	351.82596
652.86	347.89311
653.056	326.26245
653.253	377.38947
653.449	263.3369
653.645	591.72964
653.841	404.9194
654.037	231.87412
654.233	330.1953
654.429	330.1953
654.625	463.91211
654.821	420.65079
655.017	436.38218
655.213	363.6245
655.409	247.60551
655.605	389.18801
655.8	501.27415
655.996	416.71794
656.192	353.79238
656.388	575.99825
656.584	436.38218
656.78	387.22158
656.975	426.55006
657.171	483.57634
657.367	499.30773
657.563	507.17343
657.758	381.32231
657.954	432.44933
658.15	461.94568
658.345	328.22888
658.541	428.51648
658.737	383.28874
658.932	391.15443
659.128	336.09457
659.324	351.82596
659.519	440.31502
659.715	296.7661
659.91	312.49749
660.106	434.41575
660.301	328.22888
660.497	485.54277
660.692	395.08728
660.888	284.96756
661.083	318.39676
661.279	312.49749
661.474	300.69895
661.669	377.38947
661.865	263.3369
662.06	406.88582
662.256	320.36318
662.451	338.06099
662.646	349.85954
662.841	324.29603
663.037	375.42304
663.232	359.69165
663.427	369.52377
663.623	304.63179
663.818	436.38218
664.013	454.07999
664.208	469.81138
664.403	444.24787
664.598	336.09457
664.794	422.61721
664.989	414.75152
665.184	316.43033
665.379	361.65808
665.574	473.74422
665.769	265.30332
665.964	206.31061
666.159	314.46391
666.354	387.22158
666.549	302.66537
666.744	300.69895
666.939	365.59092
667.134	442.28145
667.329	330.1953
667.524	275.13544
667.719	341.99384
667.913	343.96026
668.108	345.92669
668.303	452.11356
668.498	399.02013
668.693	442.28145
668.887	399.02013
669.082	343.96026
669.277	338.06099
669.472	316.43033
669.666	389.18801
669.861	355.75881
670.056	355.75881
670.251	397.0537
670.445	310.53106
670.64	261.37047
670.834	400.98655
671.029	279.06829
671.224	208.27704
671.418	192.54565
671.613	349.85954
671.807	406.88582
672.002	365.59092
672.196	251.53835
672.391	383.28874
672.585	300.69895
672.78	406.88582
672.974	220.07558
673.169	145.35148
673.363	343.96026
673.557	235.80697
673.752	363.6245
673.946	302.66537
674.14	290.86683
674.335	343.96026
674.529	316.43033
674.723	334.12815
674.918	320.36318
675.112	340.02742
675.306	312.49749
675.5	275.13544
675.695	304.63179
675.889	316.43033
676.083	235.80697
676.277	245.63908
676.471	277.10186
676.665	265.30332
676.859	263.3369
677.053	247.60551
677.248	377.38947
677.442	318.39676
677.636	257.43763
677.83	284.96756
678.024	298.73252
678.218	267.26974
678.412	375.42304
678.606	324.29603
678.8	192.54565
678.993	139.45221
679.187	281.03471
679.381	288.9004
679.575	153.21717
679.769	243.67266
679.963	363.6245
680.157	198.44492
680.35	284.96756
680.544	316.43033
680.738	218.10915
680.932	334.12815
681.125	279.06829
681.319	267.26974
681.513	231.87412
681.707	328.22888
681.9	239.73981
682.094	338.06099
682.288	257.43763
682.481	353.79238
682.675	222.042
682.868	341.99384
683.062	316.43033
683.256	296.7661
683.449	277.10186
683.643	141.41863
683.836	306.59822
684.03	298.73252
684.223	332.16172
684.416	168.94856
684.61	259.40405
684.803	265.30332
684.997	261.37047
685.19	318.39676
685.384	212.20988
685.577	192.54565
685.77	296.7661
685.964	208.27704
686.157	245.63908
686.35	159.11644
686.543	320.36318
686.737	159.11644
686.93	290.86683
687.123	290.86683
687.316	231.87412
687.51	166.98214
687.703	220.07558
687.896	216.14273
688.089	145.35148
688.282	294.79967
688.475	224.00842
688.668	198.44492
688.861	269.23617
689.054	127.65367
689.247	314.46391
689.441	245.63908
689.634	231.87412
689.827	227.94127
690.019	255.4712
690.212	363.6245
690.405	298.73252
690.598	277.10186
690.791	275.13544
690.984	178.78068
691.177	98.15731
691.37	279.06829
691.563	157.15002
691.755	349.85954
691.948	324.29603
692.141	269.23617
692.334	322.32961
692.527	222.042
692.719	281.03471
692.912	204.34419
693.105	231.87412
693.297	247.60551
693.49	271.20259
693.683	115.85512
693.875	279.06829
694.068	214.17631
694.261	220.07558
694.453	149.28433
694.646	178.78068
694.838	314.46391
695.031	239.73981
695.223	133.55294
695.416	251.53835
695.608	218.10915
695.801	157.15002
695.993	210.24346
696.186	192.54565
696.378	78.49308
696.571	72.59381
696.763	123.72082
696.955	143.38506
697.148	225.97485
697.34	235.80697
697.532	239.73981
697.725	155.1836
697.917	275.13544
698.109	273.16901
698.302	184.67995
698.494	176.81426
698.686	257.43763
698.878	222.042
699.07	178.78068
699.263	166.98214
699.455	157.15002
699.647	202.37776
699.839	353.79238
700.031	119.78797
700.223	180.7471
700.415	259.40405
700.607	284.96756
700.799	174.84783
700.991	117.82155
701.183	220.07558
701.375	96.19089
701.567	137.48578
701.759	98.15731
701.951	241.70624
702.143	277.10186
702.335	200.41134
702.527	314.46391
702.719	80.4595
702.911	194.51207
703.102	255.4712
703.294	129.62009
703.486	182.71353
703.678	62.76169
703.87	178.78068
704.061	82.42592
704.253	133.55294
704.445	298.73252
704.637	194.51207
704.828	163.04929
705.02	294.79967
705.212	288.9004
705.403	133.55294
705.595	123.72082
705.786	72.59381
705.978	218.10915
706.17	245.63908
706.361	184.67995
706.553	190.57922
706.744	239.73981
706.936	178.78068
707.127	109.95585
707.319	198.44492
707.51	235.80697
707.702	277.10186
707.893	214.17631
708.084	176.81426
708.276	153.21717
708.467	163.04929
708.658	267.26974
708.85	168.94856
709.041	251.53835
709.232	174.84783
709.424	147.3179
709.615	204.34419
709.806	137.48578
709.997	261.37047
710.189	263.3369
710.38	253.50478
710.571	-15.89526
710.762	277.10186
710.953	113.8887
711.145	54.89599
711.336	172.88141
711.527	157.15002
711.718	66.69453
711.909	208.27704
712.1	194.51207
712.291	159.11644
712.482	54.89599
712.673	284.96756
712.864	210.24346
713.055	127.65367
713.246	227.94127
713.437	82.42592
713.628	98.15731
713.819	127.65367
714.009	243.67266
714.2	166.98214
714.391	202.37776
714.582	192.54565
714.773	271.20259
714.964	109.95585
715.154	239.73981
715.345	151.25075
715.536	27.36606
715.727	218.10915
715.917	68.66096
716.108	147.3179
716.299	78.49308
716.489	188.6128
716.68	104.05658
716.871	166.98214
717.061	119.78797
717.252	212.20988
717.442	192.54565
717.633	165.01572
717.824	35.23176
718.014	109.95585
718.205	300.69895
718.395	-8.02956
718.586	174.84783
718.776	155.1836
718.967	125.68724
719.157	90.29162
719.347	143.38506
719.538	82.42592
719.728	88.32519
719.918	117.82155
720.109	190.57922
720.299	235.80697
720.489	176.81426
720.68	192.54565
720.87	206.31061
721.06	168.94856
721.251	62.76169
721.441	176.81426
721.631	220.07558
721.821	298.73252
722.011	273.16901
722.201	139.45221
722.392	153.21717
722.582	123.72082
722.772	247.60551
722.962	127.65367
723.152	182.71353
723.342	125.68724
723.532	104.05658
723.722	163.04929
723.912	-0.16387
724.102	54.89599
724.292	149.28433
724.482	137.48578
724.672	88.32519
724.862	15.56752
725.052	109.95585
725.242	151.25075
725.432	104.05658
725.621	121.7544
725.811	147.3179
726.001	88.32519
726.191	39.1646
726.381	161.08287
726.57	107.98943
726.76	84.39235
726.95	102.09016
727.14	90.29162
727.329	151.25075
727.519	151.25075
727.709	210.24346
727.898	104.05658
728.088	194.51207
728.278	137.48578
728.467	224.00842
728.657	111.92228
728.846	231.87412
729.036	210.24346
729.225	178.78068
729.415	210.24346
729.605	90.29162
729.794	107.98943
729.983	182.71353
730.173	281.03471
730.362	410.81867
730.552	440.31502
730.741	410.81867
730.931	369.52377
731.12	406.88582
731.309	377.38947
731.499	450.14714
731.688	467.84495
731.877	416.71794
732.066	343.96026
732.256	402.95297
732.445	408.85224
732.634	353.79238
732.823	269.23617
733.013	336.09457
733.202	357.72523
733.391	332.16172
733.58	408.85224
733.769	286.93398
733.958	147.3179
734.147	104.05658
734.337	204.34419
734.526	206.31061
734.715	192.54565
734.904	284.96756
735.093	224.00842
735.282	153.21717
735.471	208.27704
735.66	192.54565
735.849	157.15002
736.037	265.30332
736.226	269.23617
736.415	204.34419
736.604	241.70624
736.793	235.80697
736.982	210.24346
737.171	102.09016
737.359	253.50478
737.548	163.04929
737.737	275.13544
737.926	292.83325
738.115	300.69895
738.303	361.65808
738.492	367.55735
738.681	245.63908
738.869	286.93398
739.058	314.46391
739.247	310.53106
739.435	308.56464
739.624	412.78509
739.812	288.9004
740.001	387.22158
740.19	499.30773
740.378	322.32961
740.567	505.207
740.755	399.02013
740.944	436.38218
741.132	487.50919
741.321	479.64349
741.509	349.85954
741.697	430.4829
741.886	446.21429
742.074	501.27415
742.263	528.80409
742.451	434.41575
742.639	442.28145
742.828	399.02013
743.016	568.13256
743.204	577.96468
743.392	601.56176
743.581	617.29315
743.769	634.99096
743.957	640.89023
744.145	627.12527
744.333	819.83478
744.522	692.01725
744.71	595.66249
744.898	821.8012
745.086	788.372
745.274	762.8085
745.462	959.45086
745.65	674.31943
745.838	774.60704
746.026	762.8085
746.214	597.62891
746.402	599.59534
746.59	599.59534
746.778	410.81867
746.966	646.7895
747.154	477.67707
747.342	581.89752
747.53	593.69606
747.718	589.76322
747.906	550.43475
748.093	458.01283
748.281	306.59822
748.469	458.01283
748.657	375.42304
748.845	391.15443
749.032	420.65079
749.22	412.78509
749.408	224.00842
749.596	434.41575
749.783	300.69895
749.971	442.28145
750.159	375.42304
750.346	353.79238
750.534	365.59092
750.721	306.59822
750.909	290.86683
751.097	312.49749
751.284	245.63908
751.472	275.13544
751.659	314.46391
751.847	200.41134
752.034	206.31061
752.222	271.20259
752.409	41.13103
752.597	302.66537
752.784	292.83325
752.971	133.55294
753.159	298.73252
753.346	220.07558
753.533	224.00842
753.721	125.68724
753.908	204.34419
754.095	157.15002
754.283	261.37047
754.47	74.56023
754.657	220.07558
754.844	125.68724
755.032	119.78797
755.219	149.28433
755.406	192.54565
755.593	151.25075
755.78	129.62009
755.967	227.94127
756.155	133.55294
756.342	123.72082
756.529	216.14273
756.716	98.15731
756.903	117.82155
757.09	157.15002
757.277	241.70624
757.464	137.48578
757.651	210.24346
757.838	92.25804
758.025	104.05658
758.212	229.90769
758.399	145.35148
758.585	107.98943
758.772	202.37776
758.959	239.73981
759.146	255.4712
759.333	261.37047
759.52	166.98214
759.706	178.78068
759.893	281.03471
760.08	198.44492
760.267	283.00113
760.453	180.7471
760.64	186.64638
760.827	222.042
761.013	113.8887
761.2	72.59381
761.387	267.26974
761.573	111.92228
761.76	192.54565
761.946	123.72082
762.133	200.41134
762.32	190.57922
762.506	161.08287
762.693	72.59381
762.879	174.84783
763.066	131.58651
763.252	117.82155
763.439	104.05658
763.625	204.34419
763.811	98.15731
763.998	64.72811
764.184	147.3179
764.371	109.95585
764.557	121.7544
764.743	80.4595
764.929	90.29162
765.116	261.37047
765.302	174.84783
765.488	50.96315
765.675	133.55294
765.861	149.28433
766.047	216.14273
766.233	149.28433
766.419	192.54565
766.605	204.34419
766.792	141.41863
766.978	178.78068
767.164	168.94856
767.35	11.63467
767.536	170.91499
767.722	212.20988
767.908	123.72082
768.094	186.64638
768.28	204.34419
768.466	123.72082
768.652	180.7471
768.838	151.25075
769.024	159.11644
769.21	70.62738
769.396	21.46679
769.582	218.10915
769.767	192.54565
769.953	196.47849
770.139	135.51936
770.325	123.72082
770.511	45.06387
770.697	147.3179
770.882	84.39235
771.068	94.22447
771.254	100.12374
771.44	37.19818
771.625	100.12374
771.811	41.13103
771.997	133.55294
772.182	84.39235
772.368	21.46679
772.553	115.85512
772.739	50.96315
772.925	39.1646
773.11	135.51936
773.296	45.06387
773.481	119.78797
773.667	206.31061
773.852	68.66096
774.038	133.55294
774.223	143.38506
774.409	106.02301
774.594	90.29162
774.779	25.39964
774.965	131.58651
775.15	145.35148
775.335	76.52665
775.521	170.91499
775.706	102.09016
775.891	174.84783
776.077	145.35148
776.262	139.45221
776.447	198.44492
776.632	157.15002
776.818	106.02301
777.003	109.95585
777.188	182.71353
777.373	145.35148
777.558	86.35877
777.743	194.51207
777.929	178.78068
778.114	227.94127
778.299	218.10915
778.484	306.59822
778.669	249.57193
778.854	257.43763
779.039	184.67995
779.224	277.10186
779.409	324.29603
779.594	241.70624
779.779	194.51207
779.964	143.38506
780.149	157.15002
780.333	243.67266
780.518	257.43763
780.703	288.9004
780.888	208.27704
781.073	153.21717
781.258	235.80697
781.442	375.42304
781.627	347.89311
781.812	363.6245
781.997	322.32961
782.181	351.82596
782.366	461.94568
782.551	381.32231
782.735	404.9194
782.92	485.54277
783.105	343.96026
783.289	434.41575
783.474	450.14714
783.658	605.49461
783.843	623.19242
784.028	383.28874
784.212	499.30773
784.397	530.77051
784.581	513.0727
784.766	617.29315
784.95	520.93839
785.134	597.62891
785.319	593.69606
785.503	640.89023
785.688	499.30773
785.872	515.03912
786.056	723.48002
786.241	662.52089
786.425	638.92381
786.609	800.17054
786.794	876.86107
786.978	988.94721
787.162	904.391
787.346	912.25669
787.531	1008.61145
787.715	1309.47426
787.899	1201.32096
788.083	1205.25381
788.267	1488.41881
788.451	1612.3035
788.636	1740.12104
788.82	1822.71083
789.004	2037.051
789.188	2245.49191
789.372	2227.79409
789.556	2579.78392
789.74	2762.66132
789.924	2770.52701
790.108	2978.96792
790.292	3244.43511
790.476	3138.24823
790.66	3134.31538
790.844	3236.56941
791.028	3030.09493
791.211	2969.1358
791.395	2825.58687
791.579	2817.72118
791.763	2766.59417
791.947	2422.47003
792.13	2428.3693
792.314	2241.55906
792.498	2359.54448
792.682	2278.92111
792.865	2235.65979
793.049	2286.7868
793.233	2512.92552
793.417	2337.91382
793.6	2613.21312
793.784	2524.72406
793.967	2711.5343
794.151	2882.61316
794.335	3098.91976
794.518	3279.83073
794.702	3476.47309
794.885	3698.67896
795.069	3826.4965
795.252	3749.80598
795.436	4003.47462
795.619	3993.6425
795.803	3830.42934
795.986	3952.34761
796.169	3903.18702
796.353	3732.10816
796.536	3616.08917
796.72	3474.50667
796.903	3212.97233
797.086	3051.72559
797.27	2878.68031
797.453	2813.78833
797.636	2699.73576
797.819	2648.60875
798.003	2503.0934
798.186	2638.77663
798.369	2566.01896
798.552	2328.0817
798.735	2392.97368
798.918	2273.02184
799.102	2420.50361
799.285	2398.87295
799.468	2359.54448
799.651	2524.72406
799.834	2564.05253
800.017	2577.8175
800.2	2636.81021
800.383	2652.5416
800.566	2583.71677
800.749	2660.40729
800.932	2597.48173
801.115	2587.64962
801.298	2862.94892
801.481	2918.00878
801.664	2957.33726
801.847	2984.86719
802.029	3030.09493
802.212	3212.97233
802.395	3100.88618
802.578	3279.83073
802.761	3350.62198
802.943	3327.0249
803.126	3448.94316
803.309	3464.67455
803.492	3446.97674
803.674	3629.85413
803.857	3616.08917
804.04	3551.19719
804.222	3531.53295
804.405	3504.00302
804.588	3547.26434
804.77	3482.37236
804.953	3246.40153
805.135	3211.0059
805.318	3228.70372
805.5	3287.69642
805.683	3163.81174
805.865	3144.1475
806.048	3157.91247
806.23	3112.68472
806.413	3075.32267
806.595	3110.7183
806.778	2978.96792
806.96	2921.94163
807.142	2888.51243
807.325	2742.99708
807.507	2642.70948
807.689	2632.87736
807.872	2520.79121
808.054	2449.99996
808.236	2487.36201
808.418	2143.23788
808.601	2046.88312
808.783	2001.65538
808.965	1926.93128
809.147	1852.20718
809.329	1816.81156
809.512	2001.65538
809.694	1806.97944
809.876	1612.3035
810.058	1531.68013
810.24	1472.68742
810.422	1372.39982
810.604	1193.45527
810.786	1413.69471
810.968	1370.43339
811.15	1234.75017
811.332	1366.50055
811.514	1295.7093
811.696	1165.92534
811.878	1116.76475
812.06	1099.06694
812.242	1213.11951
812.424	1193.45527
812.605	1006.64503
812.787	975.18225
812.969	973.21582
813.151	975.18225
813.333	831.63332
813.514	847.36471
813.696	865.06252
813.878	682.18513
814.06	857.19683
814.241	874.89464
814.423	760.84207
814.605	752.97638
814.786	701.84936
814.968	629.09169
815.149	636.95738
815.331	556.33402
815.513	749.04353
815.694	601.56176
815.876	589.76322
816.057	587.79679
816.239	532.73693
816.42	668.42016
816.602	475.71065
816.783	420.65079
816.965	406.88582
817.146	623.19242
817.327	491.44204
817.509	485.54277
817.69	481.60992
817.872	461.94568
818.053	499.30773
818.234	400.98655
818.415	399.02013
818.597	546.5019
818.778	406.88582
818.959	444.24787
819.14	452.11356
819.322	450.14714
819.503	511.10627
819.684	465.87853
819.865	471.7778
820.046	442.28145
820.227	577.96468
820.409	509.13985
820.59	609.42745
820.771	467.84495
820.952	609.42745
821.133	633.02454
821.314	607.46103
821.495	634.99096
821.676	690.05082
821.857	723.48002
822.038	719.54718
822.219	692.01725
822.4	752.97638
822.58	745.11068
822.761	821.8012
822.942	802.13697
823.123	772.64061
823.304	961.41728
823.485	922.08881
823.665	927.98808
823.846	931.92093
824.027	841.46544
824.208	912.25669
824.388	990.91364
824.569	821.8012
824.75	874.89464
824.931	900.45815
825.111	851.29756
825.292	782.47273
825.472	707.74863
825.653	868.99537
825.834	699.88294
826.014	668.42016
826.195	692.01725
826.375	621.226
826.556	601.56176
826.736	709.71506
826.917	558.30044
827.097	544.53547
827.278	389.18801
827.458	515.03912
827.638	487.50919
827.819	444.24787
827.999	491.44204
828.18	458.01283
828.36	458.01283
828.54	454.07999
828.721	495.37488
828.901	414.75152
829.081	467.84495
829.261	491.44204
829.442	493.40846
829.622	515.03912
829.802	544.53547
829.982	540.60263
830.162	497.34131
830.343	418.68436
830.523	477.67707
830.703	334.12815
830.883	501.27415
831.063	302.66537
831.243	330.1953
831.423	395.08728
831.603	361.65808
831.783	308.56464
831.963	233.84054
832.143	133.55294
832.323	353.79238
832.503	149.28433
832.683	141.41863
832.863	355.75881
833.043	353.79238
833.223	182.71353
833.402	186.64638
833.582	76.52665
833.762	196.47849
833.942	210.24346
834.122	220.07558
834.301	202.37776
834.481	218.10915
834.661	290.86683
834.841	127.65367
835.02	204.34419
835.2	170.91499
835.38	198.44492
835.559	48.99672
835.739	157.15002
835.918	166.98214
836.098	218.10915
836.278	157.15002
836.457	125.68724
836.637	41.13103
836.816	196.47849
836.996	225.97485
837.175	176.81426
837.355	206.31061
837.534	220.07558
837.714	145.35148
837.893	131.58651
838.072	188.6128
838.252	239.73981
838.431	218.10915
838.61	72.59381
838.79	48.99672
838.969	279.06829
839.148	224.00842
839.328	210.24346
839.507	200.41134
839.686	302.66537
839.865	139.45221
840.045	166.98214
840.224	182.71353
840.403	263.3369
840.582	198.44492
840.761	210.24346
840.94	298.73252
841.119	255.4712
841.298	259.40405
841.478	196.47849
841.657	127.65367
841.836	159.11644
842.015	80.4595
842.194	159.11644
842.373	210.24346
842.552	180.7471
842.73	227.94127
842.909	153.21717
843.088	255.4712
843.267	151.25075
843.446	229.90769
843.625	139.45221
843.804	186.64638
843.983	283.00113
844.161	334.12815
844.34	255.4712
844.519	249.57193
844.698	308.56464
844.876	127.65367
845.055	168.94856
845.234	204.34419
845.413	194.51207
845.591	200.41134
845.77	239.73981
845.948	338.06099
846.127	225.97485
846.306	222.042
846.484	117.82155
846.663	180.7471
846.841	125.68724
847.02	190.57922
847.198	196.47849
847.377	326.26245
847.555	279.06829
847.734	151.25075
847.912	165.01572
848.091	216.14273
848.269	330.1953
848.447	310.53106
848.626	176.81426
848.804	361.65808
848.982	259.40405
849.161	314.46391
849.339	410.81867
849.517	225.97485
849.696	245.63908
849.874	361.65808
850.052	444.24787
850.23	444.24787
850.408	438.3486
850.587	298.73252
850.765	432.44933
850.943	412.78509
851.121	399.02013
851.299	465.87853
851.477	503.24058
851.655	389.18801
851.833	485.54277
852.011	509.13985
852.189	601.56176
852.367	607.46103
852.545	607.46103
852.723	505.207
852.901	607.46103
853.079	623.19242
853.257	617.29315
853.435	684.15155
853.613	711.68148
853.791	735.27857
853.968	790.33843
854.146	770.67419
854.324	865.06252
854.502	808.03624
854.68	835.56617
854.857	908.32384
855.035	802.13697
855.213	939.78662
855.39	878.82749
855.568	939.78662
855.746	929.9545
855.923	975.18225
856.101	1240.64944
856.279	1102.99978
856.456	1110.86548
856.634	1057.77204
856.811	1279.97791
856.989	1279.97791
857.166	1458.92246
857.344	1427.45968
857.521	1454.98961
857.699	1590.67284
857.876	1649.66555
858.054	1826.64367
858.231	1968.22618
858.409	2162.90211
858.586	2308.41746
858.763	2416.57076
858.941	2489.32843
859.118	2800.02337
859.295	2925.87448
859.473	3211.0059
859.65	3826.4965
859.827	3999.54178
860.004	4424.28928
860.182	4874.60029
860.359	4939.49227
860.536	5777.18873
860.713	5956.13328
860.89	6522.46328
861.067	6695.50856
861.245	6768.26623
861.422	7090.75971
861.599	6901.98304
861.776	6953.11005
861.953	6681.74359
862.13	6400.54502
862.307	6036.75665
862.484	5828.31574
862.661	5645.43835
862.838	5354.40765
863.015	5020.11563
863.192	4872.63386
863.369	4381.02796
863.545	4418.39001
863.722	4245.34473
863.899	3798.96657
864.076	3771.43664
864.253	3675.08188
864.43	3808.79868
864.606	3722.27604
864.783	3818.6308
864.96	3677.0483
865.137	3684.914
865.313	3720.30962
865.49	3661.31691
865.667	3694.74611
865.843	3525.63368
866.02	3610.1899
866.197	3478.43952
866.373	3336.85702
866.55	3277.86431
866.726	3185.4424
866.903	3118.58399
867.079	2984.86719
867.256	3024.19566
867.432	2841.31826
867.609	2941.60587
867.785	2786.2584
867.962	2737.09781
868.138	2943.57229
868.315	2752.8292
868.491	2827.5533
868.667	2705.63503
868.844	3102.8526
869.02	2741.03066
869.196	2845.25111
869.373	2908.17667
869.549	2949.47156
869.725	3035.9942
869.902	2919.97521
870.078	3006.49785
870.254	3159.87889
870.43	3157.91247
870.606	3157.91247
870.783	3035.9942
870.959	3075.32267
871.135	3360.4541
871.311	3165.77816
871.487	3277.86431
871.663	3071.38983
871.839	2941.60587
872.015	2815.75476
872.191	2894.4117
872.367	2857.04965
872.543	2894.4117
872.719	2581.75035
872.895	2451.96639
873.071	2662.37371
873.247	2512.92552
873.423	2424.43646
873.599	2473.59705
873.775	2510.95909
873.95	2335.94739
874.126	2394.9401
874.302	2194.36489
874.478	2253.3576
874.654	2253.3576
874.829	2255.32402
875.005	2288.75323
875.181	2239.59264
875.357	2292.68607
875.532	2249.42475
875.708	2251.39118
875.884	2324.14885
876.059	2302.51819
876.235	2229.76052
876.41	2373.30944
876.586	2442.13427
876.761	2448.03354
876.937	2684.00437
877.113	2705.63503
877.288	2778.39271
877.464	2821.65403
877.639	3153.97962
877.814	3228.70372
877.99	3348.65556
878.165	3425.34608
878.341	3423.37965
878.516	3387.98403
878.691	3393.8833
878.867	3372.25264
879.042	3437.14462
879.217	3240.50226
879.393	3250.33438
879.568	3313.25993
879.743	3140.21465
879.919	3181.50955
880.094	3130.38254
880.269	3032.06135
880.444	3075.32267
880.619	3004.53142
880.794	2597.48173
880.97	2719.4
881.145	2680.07153
881.32	2448.03354
881.495	2672.20583
881.67	2611.2467
881.845	2404.77222
882.02	2377.24229
882.195	2249.42475
882.37	2278.92111
882.545	2314.31673
882.72	2149.13715
882.895	2170.76781
883.07	2031.15173
883.245	2157.00284
883.42	2029.18531
883.594	1871.87142
883.769	1962.3269
883.944	1777.48308
884.119	1805.01301
884.294	1657.53124
884.469	1626.06847
884.643	1510.04947
884.818	1529.71371
884.993	1628.03489
885.168	1515.94874
885.342	1421.56041
885.517	1407.79544
885.692	1362.5677
885.866	1252.44798
886.041	1193.45527
886.215	1154.1268
886.39	1020.40999
886.565	1116.76475
886.739	1187.556
886.914	1028.27568
887.088	1004.6786
887.263	890.62603
887.437	837.53259
887.612	802.13697
887.786	756.90923
887.96	693.98367
888.135	754.9428
888.309	715.61433
888.484	705.78221
888.658	676.28586
888.832	526.83766
889.007	692.01725
889.181	542.56905
889.355	446.21429
889.529	725.44645
889.704	442.28145
889.878	518.97197
890.052	520.93839
890.226	520.93839
890.401	456.04641
890.575	589.76322
890.749	509.13985
890.923	515.03912
891.097	456.04641
891.271	534.70336
891.445	515.03912
891.619	343.96026
891.793	479.64349
891.967	371.4902
892.141	479.64349
892.315	418.68436
892.489	513.0727
892.663	434.41575
892.837	397.0537
893.011	406.88582
893.185	432.44933
893.359	373.45662
893.533	432.44933
893.706	353.79238
893.88	312.49749
894.054	328.22888
894.228	292.83325
894.402	420.65079
894.575	418.68436
894.749	446.21429
894.923	332.16172
895.097	479.64349
895.27	324.29603
895.444	290.86683
895.617	347.89311
895.791	365.59092
895.965	330.1953
896.138	133.55294
896.312	406.88582
896.485	157.15002
896.659	302.66537
896.832	229.90769
897.006	463.91211
897.179	222.042
897.353	283.00113
897.526	163.04929
897.7	294.79967
897.873	290.86683
898.047	267.26974
898.22	302.66537
898.393	277.10186
898.567	324.29603
898.74	279.06829
898.913	330.1953
899.087	214.17631
899.26	290.86683
899.433	267.26974
899.606	302.66537
899.78	399.02013
899.953	227.94127
900.126	224.00842
900.299	426.55006
900.472	371.4902
900.645	347.89311
900.818	296.7661
900.992	397.0537
901.165	400.98655
901.338	338.06099
901.511	365.59092
901.684	477.67707
901.857	471.7778
902.03	461.94568
902.203	393.12086
902.376	444.24787
902.549	426.55006
902.721	369.52377
902.894	359.69165
903.067	414.75152
903.24	351.82596
903.413	298.73252
903.586	377.38947
903.759	367.55735
903.931	426.55006
904.104	332.16172
904.277	357.72523
904.45	522.90481
904.622	347.89311
904.795	353.79238
904.968	385.25516
905.14	385.25516
905.313	296.7661
905.486	338.06099
905.658	351.82596
905.831	428.51648
906.003	432.44933
906.176	292.83325
906.348	458.01283
906.521	292.83325
906.693	420.65079
906.866	332.16172
907.038	353.79238
907.211	416.71794
907.383	404.9194
907.556	218.10915
907.728	141.41863
907.9	259.40405
908.073	279.06829
908.245	247.60551
908.417	281.03471
908.59	214.17631
908.762	135.51936
908.934	212.20988
909.107	243.67266
909.279	245.63908
909.451	117.82155
909.623	216.14273
909.795	100.12374
909.967	135.51936
910.14	271.20259
910.312	227.94127
910.484	196.47849
910.656	76.52665
910.828	157.15002
911	17.53394
911.172	204.34419
911.344	39.1646
911.516	33.26533
911.688	104.05658
911.86	-35.55949
912.032	88.32519
912.204	39.1646
912.376	39.1646
912.548	62.76169
912.72	86.35877
912.891	19.50037
913.063	-2.13029
913.235	17.53394
913.407	80.4595
913.579	17.53394
913.75	27.36606
913.922	25.39964
914.094	23.43321
914.266	82.42592
914.437	94.22447
914.609	-68.9887
914.781	-35.55949
914.952	-19.8281
915.124	80.4595
915.296	52.92957
915.467	-27.6938
915.639	-25.72738
915.81	84.39235
915.982	43.09745
916.153	-37.52592
916.325	-67.02227
916.496	-88.65293
916.668	-21.79453
916.839	-43.42519
917.011	47.0303
917.182	47.0303
917.353	88.32519
917.525	-27.6938
917.696	-25.72738
917.867	7.70183
918.039	-49.32446
918.21	7.70183
918.381	70.62738
918.553	-2.13029
918.724	-41.45876
918.895	29.33249
919.066	78.49308
919.237	-100.45147
919.409	-61.123
919.58	-104.38432
919.751	115.85512
919.922	9.66825
920.093	-31.62665
920.264	3.76898
920.435	-104.38432
920.606	9.66825
920.777	-23.76095
920.948	-19.8281
921.119	157.15002
921.29	29.33249
921.461	-51.29088
921.632	-169.2763
921.803	-114.21644
921.974	74.56023
922.145	-57.19015
922.316	-49.32446
922.487	27.36606
922.657	-63.08942
922.828	-86.68651
922.999	56.86242
923.17	41.13103
923.341	-15.89526
923.511	33.26533
923.682	-33.59307
923.853	39.1646
924.023	-11.96241
924.194	-13.92883
924.365	-63.08942
924.535	-33.59307
924.706	-106.35074
924.877	-31.62665
925.047	11.63467
925.218	33.26533
925.388	-9.99599
925.559	-94.5522
925.729	-61.123
925.9	-59.15658
926.07	-43.42519
926.241	29.33249
926.411	31.29891
926.582	-78.82081
926.752	39.1646
926.922	-67.02227
927.093	52.92957
927.263	-9.99599
927.433	41.13103
927.604	-37.52592
927.774	-27.6938
927.944	-13.92883
928.115	33.26533
928.285	78.49308
928.455	137.48578
928.625	-135.8471
928.795	-23.76095
928.966	-51.29088
929.136	-11.96241
929.306	-41.45876
929.476	37.19818
929.646	47.0303
929.816	-65.05585
929.986	-21.79453
930.156	-171.24272
930.326	-108.31717
930.496	23.43321
930.666	-6.06314
930.836	-63.08942
931.006	-19.8281
931.176	3.76898
931.346	-37.52592
931.516	-23.76095
931.686	29.33249
931.856	-17.86168
932.025	-108.31717
932.195	7.70183
932.365	48.99672
932.535	-65.05585
932.705	45.06387
932.874	27.36606
933.044	-98.48505
933.214	-98.48505
933.384	80.4595
933.553	21.46679
933.723	-6.06314
933.893	-4.09672
934.062	-100.45147
934.232	47.0303
934.401	-9.99599
934.571	-59.15658
934.74	29.33249
934.91	-39.49234
935.079	109.95585
935.249	107.98943
935.418	54.89599
935.588	96.19089
935.757	-4.09672
935.927	11.63467
936.096	-53.25731
936.266	-68.9887
936.435	-63.08942
936.604	35.23176
936.774	-90.61936
936.943	-51.29088
937.112	7.70183
937.282	168.94856
937.451	-43.42519
937.62	-0.16387
937.789	-45.39161
937.958	-23.76095
938.128	43.09745
938.297	35.23176
938.466	106.02301
938.635	-70.95512
938.804	-112.25002
938.973	-25.72738
939.142	41.13103
939.312	102.09016
939.481	15.56752
939.65	17.53394
939.819	-41.45876
939.988	-118.14929
940.157	-57.19015
940.326	-51.29088
940.494	23.43321
940.663	-68.9887
940.832	-135.8471
941.001	-96.51863
941.17	-45.39161
941.339	-25.72738
941.508	-19.8281
941.677	48.99672
941.845	17.53394
942.014	-90.61936
942.183	-29.66022
942.352	-68.9887
942.52	94.22447
942.689	-129.94783
942.858	-55.22373
943.026	19.50037
943.195	-15.89526
943.364	-41.45876
943.532	-8.02956
943.701	-92.58578
943.869	-61.123
944.038	27.36606
944.206	45.06387
944.375	-13.92883
944.544	-110.28359
944.712	7.70183
944.88	52.92957
945.049	-25.72738
945.217	98.15731
945.386	-25.72738
945.554	104.05658
945.723	-21.79453
945.891	-2.13029
946.059	5.7354
946.228	-37.52592
946.396	-47.35804
946.564	35.23176
946.732	-88.65293
946.901	-80.78724
947.069	-192.87338
947.237	29.33249
947.405	39.1646
947.573	17.53394
947.742	76.52665
947.91	48.99672
948.078	-41.45876
948.246	-49.32446
948.414	47.0303
948.582	48.99672
948.75	35.23176
948.918	-41.45876
949.086	-80.78724
949.254	48.99672
949.422	90.29162
949.59	115.85512
949.758	-13.92883
949.926	-17.86168
950.094	102.09016
950.262	43.09745
950.43	1.80255
950.598	-98.48505
950.765	9.66825
950.933	-88.65293
951.101	66.69453
951.269	23.43321
951.437	-72.92154
951.604	31.29891
951.772	143.38506
951.94	5.7354
952.107	23.43321
952.275	-68.9887
952.443	-149.61206
952.61	-177.14199
952.778	-116.18286
952.946	-35.55949
953.113	-55.22373
953.281	29.33249
953.448	-65.05585
953.616	70.62738
953.783	-11.96241
953.951	-23.76095
954.118	64.72811
954.286	-41.45876
954.453	-4.09672
954.621	-155.51133
954.788	-41.45876
954.955	39.1646
955.123	29.33249
955.29	-6.06314
955.457	-59.15658
955.625	-88.65293
955.792	-9.99599
955.959	60.79526
956.126	-8.02956
956.294	-21.79453
956.461	-80.78724
956.628	-53.25731
956.795	1.80255
956.962	-21.79453
957.13	39.1646
957.297	-41.45876
957.464	15.56752
957.631	27.36606
957.798	43.09745
957.965	15.56752
958.132	21.46679
958.299	-120.11571
958.466	-2.13029
958.633	-96.51863
958.8	-53.25731
958.967	-13.92883
959.134	-96.51863
959.301	-33.59307
959.468	96.19089
959.634	-11.96241
959.801	47.0303
959.968	-13.92883
960.135	37.19818
960.302	3.76898
960.469	13.6011
960.635	17.53394
960.802	-43.42519
960.969	-37.52592
961.135	-63.08942
961.302	-29.66022
961.469	19.50037
961.635	-25.72738
961.802	-23.76095
961.969	-8.02956
962.135	27.36606
962.302	29.33249
962.468	96.19089
962.635	72.59381
962.802	5.7354
962.968	-45.39161
963.135	-17.86168
963.301	54.89599
963.467	-0.16387
963.634	37.19818
963.8	-74.88797
963.967	-37.52592
964.133	-29.66022
964.299	-21.79453
964.466	104.05658
964.632	48.99672
964.798	47.0303
964.965	7.70183
965.131	39.1646
965.297	-39.49234
965.463	27.36606
965.63	-112.25002
965.796	-67.02227
965.962	7.70183
966.128	43.09745
966.294	-19.8281
966.46	-9.99599
966.627	68.66096
966.793	-124.04856
966.959	-23.76095
967.125	-102.4179
967.291	-2.13029
967.457	-57.19015
967.623	-11.96241
967.789	-68.9887
967.955	-35.55949
968.121	13.6011
968.287	5.7354
968.452	-0.16387
968.618	-70.95512
968.784	-82.75366
968.95	-29.66022
969.116	-33.59307
969.282	-19.8281
969.447	25.39964
969.613	104.05658
969.779	-70.95512
969.945	25.39964
970.11	-55.22373
970.276	-86.68651
970.442	58.82884
970.607	54.89599
970.773	-106.35074
970.939	-84.72008
971.104	90.29162
971.27	-96.51863
971.436	41.13103
971.601	-39.49234
971.767	23.43321
971.932	-29.66022
972.098	-33.59307
972.263	3.76898
972.429	-35.55949
972.594	-47.35804
972.759	50.96315
972.925	1.80255
973.09	45.06387
973.256	-21.79453
973.421	13.6011
973.586	68.66096
973.752	3.76898
973.917	-25.72738
974.082	-19.8281
974.247	29.33249
974.413	-25.72738
974.578	-59.15658
974.743	-88.65293
974.908	-110.28359
975.074	52.92957
975.239	1.80255
975.404	-11.96241
975.569	37.19818
975.734	-106.35074
975.899	-37.52592
976.064	-31.62665
976.229	-11.96241
976.394	13.6011
976.559	19.50037
976.724	19.50037
976.889	-4.09672
977.054	-29.66022
977.219	21.46679
977.384	-106.35074
977.549	-65.05585
977.714	-78.82081
977.879	-19.8281
978.043	29.33249
978.208	100.12374
978.373	29.33249
978.538	-43.42519
978.703	39.1646
978.867	33.26533
979.032	-49.32446
979.197	-9.99599
979.362	-8.02956
979.526	-133.88067
979.691	-133.88067
979.856	-21.79453
980.02	25.39964
980.185	37.19818
980.349	-135.8471
980.514	-4.09672
980.678	-126.01498
980.843	50.96315
981.007	-147.64564
981.172	-13.92883
981.336	-8.02956
981.501	-100.45147
981.665	-96.51863
981.83	-86.68651
981.994	39.1646
982.159	-0.16387
982.323	-212.53762
982.487	-147.64564
982.652	23.43321
982.816	-74.88797
982.98	-23.76095
983.144	-114.21644
983.309	43.09745
983.473	-0.16387
983.637	3.76898
983.801	-43.42519
983.966	-37.52592
984.13	-15.89526
984.294	-51.29088
984.458	-98.48505
984.622	-122.08213
984.786	-110.28359
984.95	17.53394
985.114	-17.86168
985.278	-21.79453
985.442	5.7354
985.606	-55.22373
985.77	-15.89526
985.934	29.33249
986.098	-129.94783
986.262	-57.19015
986.426	-72.92154
986.59	-82.75366
986.754	-6.06314
986.918	-41.45876
987.082	-88.65293
987.245	-92.58578
987.409	-2.13029
987.573	-15.89526
987.737	-84.72008
987.9	17.53394
988.064	50.96315
988.228	115.85512
988.392	-108.31717
988.555	31.29891
988.719	27.36606
988.882	-23.76095
989.046	9.66825
989.21	-78.82081
989.373	7.70183
989.537	29.33249
989.7	84.39235
989.864	-63.08942
990.027	-72.92154
990.191	37.19818
990.354	-45.39161
990.518	-72.92154
990.681	-106.35074
990.845	-2.13029
991.008	-80.78724
991.171	39.1646
991.335	-9.99599
991.498	-53.25731
991.661	17.53394
991.825	1.80255
991.988	-17.86168
992.151	-175.17557
992.314	-118.14929
992.478	27.36606
992.641	11.63467
992.804	-33.59307
992.967	-72.92154
993.13	-68.9887
993.294	58.82884
993.457	-45.39161
993.62	52.92957
993.783	21.46679
993.946	-67.02227
994.109	-33.59307
994.272	-82.75366
994.435	-61.123
994.598	60.79526
994.761	-41.45876
994.924	-2.13029
995.087	-29.66022
995.25	-145.67922
995.413	88.32519
995.575	-92.58578
995.738	-37.52592
995.901	7.70183
996.064	62.76169
996.227	-70.95512
996.39	-51.29088
996.552	-19.8281
996.715	86.35877
996.878	-47.35804
997.041	-108.31717
997.203	41.13103
997.366	-86.68651
997.529	129.62009
997.691	-2.13029
997.854	-0.16387
998.016	-67.02227
998.179	29.33249
998.342	23.43321
998.504	-68.9887
998.667	-84.72008
998.829	54.89599
998.992	1.80255
999.154	92.25804
999.317	3.76898
999.479	-19.8281
999.641	-224.33616
999.804	15.56752
999.966	-13.92883
1000.128	-25.72738
1000.291	-37.52592
1000.453	-120.11571
1000.615	11.63467
1000.778	-78.82081
1000.94	-65.05585
1001.102	-27.6938
1001.264	9.66825
1001.427	13.6011
1001.589	-120.11571
1001.751	37.19818
1001.913	-206.63835
1002.075	3.76898
1002.237	88.32519
1002.4	25.39964
1002.562	29.33249
1002.724	56.86242
1002.886	-13.92883
1003.048	15.56752
1003.21	102.09016
1003.372	-100.45147
1003.534	-47.35804
1003.696	-15.89526
1003.858	-47.35804
1004.02	-116.18286
1004.181	7.70183
1004.343	-70.95512
1004.505	5.7354
1004.667	-72.92154
1004.829	74.56023
1004.991	-57.19015
1005.152	-11.96241
1005.314	-21.79453
1005.476	-49.32446
1005.638	-4.09672
1005.799	-92.58578
1005.961	9.66825
1006.123	-70.95512
1006.284	-80.78724
1006.446	-17.86168
1006.608	-43.42519
1006.769	15.56752
1006.931	-41.45876
1007.092	-80.78724
1007.254	-49.32446
1007.416	-11.96241
1007.577	-47.35804
1007.739	-80.78724
1007.9	-21.79453
1008.061	17.53394
1008.223	15.56752
1008.384	-33.59307
1008.546	-2.13029
1008.707	-67.02227
1008.868	-110.28359
1009.03	21.46679
1009.191	-41.45876
1009.352	-104.38432
1009.514	104.05658
1009.675	-80.78724
1009.836	-6.06314
1009.997	-13.92883
1010.159	25.39964
1010.32	-86.68651
1010.481	-57.19015
1010.642	35.23176
1010.803	-15.89526
1010.964	82.42592
1011.126	-47.35804
1011.287	-49.32446
1011.448	-19.8281
1011.609	-19.8281
1011.77	-133.88067
1011.931	-53.25731
1012.092	-53.25731
1012.253	-104.38432
1012.414	3.76898
1012.575	-41.45876
1012.736	-74.88797
1012.896	-74.88797
1013.057	-37.52592
1013.218	-72.92154
1013.379	-29.66022
1013.54	-96.51863
1013.701	9.66825
1013.861	165.01572
1014.022	-124.04856
1014.183	70.62738
1014.344	5.7354
1014.504	-47.35804
1014.665	-76.85439
1014.826	-47.35804
1014.986	-139.77995
1015.147	-131.91425
1015.308	-31.62665
1015.468	149.28433
1015.629	35.23176
1015.789	-19.8281
1015.95	-94.5522
1016.111	-84.72008
1016.271	15.56752
1016.432	-49.32446
1016.592	-61.123
1016.752	31.29891
1016.913	86.35877
1017.073	48.99672
1017.234	-37.52592
1017.394	-27.6938
1017.554	48.99672
1017.715	-78.82081
1017.875	23.43321
1018.035	-39.49234
1018.196	-51.29088
1018.356	-8.02956
1018.516	-63.08942
1018.676	-183.04127
1018.837	-84.72008
1018.997	31.29891
1019.157	-70.95512
1019.317	-2.13029
1019.477	-127.9814
1019.637	-31.62665
1019.798	45.06387
1019.958	62.76169
1020.118	-57.19015
1020.278	-88.65293
1020.438	-0.16387
1020.598	-96.51863
1020.758	-35.55949
1020.918	-104.38432
1021.078	45.06387
1021.238	58.82884
1021.397	-29.66022
1021.557	90.29162
1021.717	139.45221
1021.877	56.86242
1022.037	-88.65293
1022.197	43.09745
1022.357	-47.35804
1022.516	-96.51863
1022.676	-47.35804
1022.836	-61.123
1022.996	-0.16387
1023.155	-2.13029
1023.315	45.06387
1023.475	-110.28359
1023.634	39.1646
1023.794	-17.86168
1023.954	-88.65293
1024.113	37.19818
1024.273	50.96315
1024.432	-114.21644
1024.592	84.39235
1024.751	96.19089
1024.911	-131.91425
1025.07	-4.09672
1025.23	-39.49234
1025.389	37.19818
1025.549	-59.15658
1025.708	-78.82081
1025.868	62.76169
1026.027	52.92957
1026.186	-33.59307
1026.346	-82.75366
1026.505	-47.35804
1026.664	-110.28359
1026.823	17.53394
1026.983	1.80255
1027.142	23.43321
1027.301	-57.19015
1027.46	-23.76095
1027.62	-63.08942
1027.779	94.22447
1027.938	-59.15658
1028.097	-41.45876
1028.256	-35.55949
1028.415	-35.55949
1028.574	-11.96241
1028.733	-31.62665
1028.892	-6.06314
1029.051	-17.86168
1029.21	-76.85439
1029.369	-4.09672
1029.528	-35.55949
1029.687	-74.88797
1029.846	-135.8471
1030.005	31.29891
1030.164	-27.6938
1030.323	-15.89526
1030.482	31.29891
1030.641	45.06387
1030.799	72.59381
1030.958	-173.20915
1031.117	-80.78724
1031.276	-35.55949
1031.435	37.19818
1031.593	-23.76095
1031.752	-155.51133
1031.911	41.13103
1032.069	-122.08213
1032.228	-92.58578
1032.387	-31.62665
1032.545	161.08287
1032.704	70.62738
1032.862	-15.89526
1033.021	-153.54491
1033.179	43.09745
1033.338	54.89599
1033.496	-100.45147
1033.655	107.98943
1033.813	-82.75366
1033.972	104.05658
1034.13	-27.6938
1034.289	-15.89526
1034.447	-84.72008
1034.605	-88.65293
1034.764	-51.29088
1034.922	-67.02227
1035.08	-0.16387
1035.239	39.1646
1035.397	-21.79453
1035.555	-17.86168
1035.713	-104.38432
1035.872	-31.62665
1036.03	13.6011
1036.188	-51.29088
1036.346	88.32519
1036.504	21.46679
1036.662	-80.78724
1036.821	9.66825
1036.979	31.29891
1037.137	-11.96241
1037.295	-37.52592
1037.453	45.06387
1037.611	-4.09672
1037.769	-61.123
1037.927	13.6011
1038.085	-59.15658
1038.243	25.39964
1038.401	11.63467
1038.559	11.63467
