Data from LiYF4_Nd_2.5 pc_50 C_Subt2__0__15-14-19-394.txt Node

Date: Thu May 14 15:14:19 CEST 2026
User: NP.5066655
Spectrometer: FLMT06117
Trigger mode: 0
Integration Time (sec): 2.500000E-1
Scans to average: 1
Electric dark correction enabled: true
Nonlinearity correction enabled: false
Boxcar width: 0
XAxis mode: Wavelengths
Number of Pixels in Spectrum: 3648
>>>>>Begin Spectral Data<<<<<
346.633	74.06862
346.852	74.06862
347.071	74.06862
347.29	-20.31971
347.51	34.74015
347.729	-104.87593
347.948	9.17664
348.167	3.27737
348.386	-69.4803
348.606	13.10949
348.825	74.06862
349.044	91.76644
349.263	-55.71534
349.482	-14.42044
349.701	50.47154
349.92	-32.11825
350.139	-36.0511
350.358	44.57227
350.577	107.49782
350.796	-8.52117
351.015	111.43067
351.234	-53.74891
351.453	50.47154
351.672	-71.44672
351.891	30.8073
352.11	87.83359
352.329	-14.42044
352.548	-24.25256
352.767	46.53869
352.986	76.03505
353.204	-18.35329
353.423	5.2438
353.642	-93.07738
353.861	-49.81607
354.08	-55.71534
354.298	-36.0511
354.517	-24.25256
354.736	9.17664
354.955	3.27737
355.173	-47.84964
355.392	-83.24527
355.611	-2.6219
355.829	13.10949
356.048	-18.35329
356.267	-6.55475
356.485	66.20293
356.704	-8.52117
356.922	93.73286
357.141	46.53869
357.36	17.04234
357.578	-20.31971
357.797	-2.6219
358.015	74.06862
358.234	-67.51388
358.452	28.84088
358.671	-156.00294
358.889	26.87446
359.108	81.93432
359.326	-4.58832
359.544	38.673
359.763	13.10949
359.981	-30.15183
360.2	-43.91679
360.418	-55.71534
360.636	7.21022
360.855	30.8073
361.073	-2.6219
361.291	-51.78249
361.509	-75.37957
361.728	3.27737
361.946	-53.74891
362.164	46.53869
362.382	-18.35329
362.601	-71.44672
362.819	-20.31971
363.037	-41.95037
363.255	48.50512
363.473	-36.0511
363.691	28.84088
363.909	66.20293
364.128	58.33723
364.346	76.03505
364.564	-12.45402
364.782	-4.58832
365	56.37081
365.218	54.40439
365.436	-24.25256
365.654	-18.35329
365.872	7.21022
366.09	-41.95037
366.308	-2.6219
366.526	105.5314
366.743	-8.52117
366.961	20.97519
367.179	-47.84964
367.397	176.32265
367.615	36.70657
367.833	32.77373
368.051	62.27008
368.268	24.90803
368.486	-6.55475
368.704	-146.17082
368.922	24.90803
369.14	-38.01752
369.357	-6.55475
369.575	-77.346
369.793	44.57227
370.01	9.17664
370.228	48.50512
370.446	-49.81607
370.663	-69.4803
370.881	66.20293
371.099	9.17664
371.316	1.31095
371.534	11.14307
371.751	-38.01752
371.969	127.16206
372.186	-69.4803
372.404	-61.61461
372.621	58.33723
372.839	-156.00294
373.056	60.30366
373.274	-22.28613
373.491	-22.28613
373.709	-38.01752
373.926	-22.28613
374.144	89.80001
374.361	48.50512
374.578	-97.01023
374.796	95.69928
375.013	48.50512
375.23	79.96789
375.448	103.56498
375.665	-8.52117
375.882	20.97519
376.099	127.16206
376.317	76.03505
376.534	79.96789
376.751	79.96789
376.968	7.21022
377.186	103.56498
377.403	-71.44672
377.62	103.56498
377.837	60.30366
378.054	54.40439
378.271	111.43067
378.488	28.84088
378.705	119.29637
378.923	-8.52117
379.14	-30.15183
379.357	76.03505
379.574	-63.58103
379.791	-69.4803
380.008	28.84088
380.225	-14.42044
380.442	121.26279
380.659	-57.68176
380.875	-30.15183
381.092	22.94161
381.309	-65.54745
381.526	-69.4803
381.743	-55.71534
381.96	-6.55475
382.177	15.07591
382.394	-16.38686
382.61	-18.35329
382.827	79.96789
383.044	-38.01752
383.261	-22.28613
383.477	-55.71534
383.694	-0.65547
383.911	-81.27884
384.128	28.84088
384.344	135.02776
384.561	-93.07738
384.778	-53.74891
384.994	-24.25256
385.211	70.13578
385.428	-45.88322
385.644	-6.55475
385.861	91.76644
386.077	9.17664
386.294	-30.15183
386.51	-73.41315
386.727	99.63213
386.943	58.33723
387.16	-41.95037
387.376	-26.21898
387.593	85.86716
387.809	7.21022
388.026	91.76644
388.242	-47.84964
388.459	-8.52117
388.675	-34.08468
388.891	38.673
389.108	62.27008
389.324	-57.68176
389.54	-18.35329
389.757	-8.52117
389.973	74.06862
390.189	-124.54016
390.405	-87.17811
390.622	-4.58832
390.838	-6.55475
391.054	-38.01752
391.27	-30.15183
391.487	-49.81607
391.703	-87.17811
391.919	79.96789
392.135	40.63942
392.351	64.2365
392.567	-79.31242
392.783	1.31095
393	-45.88322
393.216	-41.95037
393.432	87.83359
393.648	-10.48759
393.864	-163.86864
394.08	17.04234
394.296	66.20293
394.512	-14.42044
394.728	50.47154
394.944	-10.48759
395.16	72.1022
395.375	-10.48759
395.591	-14.42044
395.807	-43.91679
396.023	-39.98395
396.239	-26.21898
396.455	-43.91679
396.671	197.95331
396.886	44.57227
397.102	-20.31971
397.318	70.13578
397.534	1.31095
397.749	-6.55475
397.965	195.98689
398.181	40.63942
398.397	13.10949
398.612	-49.81607
398.828	-6.55475
399.044	-75.37957
399.259	-61.61461
399.475	117.32994
399.691	-24.25256
399.906	40.63942
400.122	-12.45402
400.337	28.84088
400.553	42.60585
400.768	-47.84964
400.984	36.70657
401.199	1.31095
401.415	74.06862
401.63	17.04234
401.846	-22.28613
402.061	-51.78249
402.277	13.10949
402.492	38.673
402.708	-10.48759
402.923	-6.55475
403.138	-2.6219
403.354	156.65842
403.569	24.90803
403.784	3.27737
404	-26.21898
404.215	-20.31971
404.43	24.90803
404.645	48.50512
404.861	115.36352
405.076	-24.25256
405.291	-43.91679
405.506	64.2365
405.722	-77.346
405.937	-4.58832
406.152	-41.95037
406.367	-26.21898
406.582	-22.28613
406.797	28.84088
407.012	20.97519
407.227	-0.65547
407.442	-67.51388
407.658	-128.47301
407.873	-146.17082
408.088	78.00147
408.303	72.1022
408.518	-47.84964
408.733	22.94161
408.947	-79.31242
409.162	-8.52117
409.377	60.30366
409.592	-8.52117
409.807	66.20293
410.022	19.00876
410.237	-49.81607
410.452	46.53869
410.667	1.31095
410.881	-222.86134
411.096	44.57227
411.311	74.06862
411.526	-132.40586
411.741	9.17664
411.955	15.07591
412.17	-114.70804
412.385	24.90803
412.599	-18.35329
412.814	1.31095
413.029	60.30366
413.243	-100.94308
413.458	-38.01752
413.673	46.53869
413.887	-10.48759
414.102	-102.9095
414.316	5.2438
414.531	56.37081
414.746	34.74015
414.96	15.07591
415.175	103.56498
415.389	-4.58832
415.604	40.63942
415.818	-32.11825
416.032	-12.45402
416.247	-65.54745
416.461	52.43796
416.676	-53.74891
416.89	15.07591
417.105	1.31095
417.319	3.27737
417.533	46.53869
417.748	-26.21898
417.962	-18.35329
418.176	-77.346
418.39	26.87446
418.605	13.10949
418.819	117.32994
419.033	62.27008
419.247	-2.6219
419.462	-10.48759
419.676	62.27008
419.89	111.43067
420.104	52.43796
420.318	-0.65547
420.532	58.33723
420.747	-6.55475
420.961	-112.74162
421.175	-8.52117
421.389	38.673
421.603	-28.18541
421.817	-49.81607
422.031	-32.11825
422.245	-93.07738
422.459	68.16935
422.673	42.60585
422.887	-146.17082
423.101	-43.91679
423.315	-22.28613
423.529	-43.91679
423.743	135.02776
423.956	1.31095
424.17	-36.0511
424.384	32.77373
424.598	13.10949
424.812	24.90803
425.026	-10.48759
425.239	-28.18541
425.453	-26.21898
425.667	-12.45402
425.881	-81.27884
426.095	-47.84964
426.308	-0.65547
426.522	-4.58832
426.736	44.57227
426.949	184.18835
427.163	-77.346
427.377	-97.01023
427.59	81.93432
427.804	125.19564
428.017	-8.52117
428.231	-6.55475
428.445	7.21022
428.658	56.37081
428.872	-128.47301
429.085	32.77373
429.299	-10.48759
429.512	-63.58103
429.726	-104.87593
429.939	-32.11825
430.153	60.30366
430.366	50.47154
430.579	46.53869
430.793	-8.52117
431.006	40.63942
431.22	30.8073
431.433	15.07591
431.646	44.57227
431.86	97.66571
432.073	32.77373
432.286	5.2438
432.499	-63.58103
432.713	-20.31971
432.926	-20.31971
433.139	-2.6219
433.352	-59.64818
433.565	-2.6219
433.779	50.47154
433.992	-167.80148
434.205	54.40439
434.418	-26.21898
434.631	-43.91679
434.844	-12.45402
435.057	3.27737
435.271	-77.346
435.484	42.60585
435.697	-134.37228
435.91	40.63942
436.123	9.17664
436.336	5.2438
436.549	-10.48759
436.762	89.80001
436.975	24.90803
437.187	115.36352
437.4	70.13578
437.613	-4.58832
437.826	22.94161
438.039	170.42338
438.252	66.20293
438.465	129.12848
438.678	19.00876
438.89	-47.84964
439.103	22.94161
439.316	-4.58832
439.529	-6.55475
439.741	133.06133
439.954	-43.91679
440.167	-61.61461
440.38	-112.74162
440.592	48.50512
440.805	-28.18541
441.018	46.53869
441.23	-73.41315
441.443	11.14307
441.656	-18.35329
441.868	-38.01752
442.081	24.90803
442.293	-39.98395
442.506	42.60585
442.718	22.94161
442.931	-14.42044
443.143	28.84088
443.356	34.74015
443.568	40.63942
443.781	-30.15183
443.993	68.16935
444.206	26.87446
444.418	60.30366
444.63	28.84088
444.843	-22.28613
445.055	34.74015
445.268	-83.24527
445.48	-161.90221
445.692	50.47154
445.904	107.49782
446.117	-104.87593
446.329	-12.45402
446.541	5.2438
446.754	46.53869
446.966	50.47154
447.178	26.87446
447.39	19.00876
447.602	54.40439
447.815	85.86716
448.027	-53.74891
448.239	-69.4803
448.451	-26.21898
448.663	26.87446
448.875	-63.58103
449.087	99.63213
449.299	9.17664
449.511	46.53869
449.723	-20.31971
449.935	19.00876
450.147	70.13578
450.359	13.10949
450.571	109.46425
450.783	-4.58832
450.995	9.17664
451.207	64.2365
451.419	54.40439
451.631	52.43796
451.843	-8.52117
452.055	107.49782
452.266	-112.74162
452.478	-34.08468
452.69	85.86716
452.902	-4.58832
453.114	-24.25256
453.325	7.21022
453.537	-43.91679
453.749	9.17664
453.961	105.5314
454.172	72.1022
454.384	-16.38686
454.596	66.20293
454.807	-26.21898
455.019	105.5314
455.23	40.63942
455.442	-41.95037
455.654	-34.08468
455.865	7.21022
456.077	5.2438
456.288	99.63213
456.5	7.21022
456.711	-36.0511
456.923	-140.27155
457.134	42.60585
457.346	3.27737
457.557	22.94161
457.769	58.33723
457.98	52.43796
458.192	24.90803
458.403	74.06862
458.614	48.50512
458.826	-20.31971
459.037	160.59126
459.248	91.76644
459.46	-49.81607
459.671	56.37081
459.882	-0.65547
460.094	24.90803
460.305	-28.18541
460.516	26.87446
460.727	-116.67447
460.938	40.63942
461.15	13.10949
461.361	101.59855
461.572	20.97519
461.783	28.84088
461.994	95.69928
462.205	168.45696
462.416	28.84088
462.627	-91.11096
462.839	22.94161
463.05	13.10949
463.261	-81.27884
463.472	-146.17082
463.683	-22.28613
463.894	52.43796
464.105	-20.31971
464.316	-79.31242
464.526	180.2555
464.737	-26.21898
464.948	70.13578
465.159	56.37081
465.37	17.04234
465.581	129.12848
465.792	-59.64818
466.003	62.27008
466.213	36.70657
466.424	40.63942
466.635	7.21022
466.846	46.53869
467.057	-38.01752
467.267	42.60585
467.478	24.90803
467.689	150.75914
467.899	-63.58103
468.11	5.2438
468.321	-18.35329
468.531	-53.74891
468.742	-97.01023
468.953	-8.52117
469.163	-28.18541
469.374	54.40439
469.584	146.8263
469.795	-20.31971
470.005	-2.6219
470.216	56.37081
470.426	-102.9095
470.637	11.14307
470.847	22.94161
471.058	30.8073
471.268	95.69928
471.479	11.14307
471.689	79.96789
471.9	1.31095
472.11	-146.17082
472.32	-45.88322
472.531	-81.27884
472.741	-41.95037
472.951	-2.6219
473.162	46.53869
473.372	142.89345
473.582	-63.58103
473.792	26.87446
474.003	7.21022
474.213	7.21022
474.423	-97.01023
474.633	54.40439
474.843	60.30366
475.054	-22.28613
475.264	19.00876
475.474	-51.78249
475.684	95.69928
475.894	11.14307
476.104	1.31095
476.314	-55.71534
476.524	-38.01752
476.734	-2.6219
476.944	-53.74891
477.154	36.70657
477.364	19.00876
477.574	-26.21898
477.784	-36.0511
477.994	-18.35329
478.204	78.00147
478.414	36.70657
478.624	-59.64818
478.834	-116.67447
479.044	34.74015
479.254	-69.4803
479.463	-59.64818
479.673	76.03505
479.883	-41.95037
480.093	38.673
480.303	64.2365
480.512	-26.21898
480.722	-0.65547
480.932	38.673
481.142	93.73286
481.351	60.30366
481.561	11.14307
481.771	-41.95037
481.98	-4.58832
482.19	20.97519
482.399	-83.24527
482.609	62.27008
482.819	-43.91679
483.028	-55.71534
483.238	-47.84964
483.447	54.40439
483.657	-0.65547
483.866	58.33723
484.076	19.00876
484.285	101.59855
484.495	68.16935
484.704	76.03505
484.914	5.2438
485.123	79.96789
485.332	60.30366
485.542	58.33723
485.751	101.59855
485.961	-4.58832
486.17	-61.61461
486.379	-4.58832
486.589	30.8073
486.798	-106.84235
487.007	70.13578
487.216	9.17664
487.426	19.00876
487.635	-38.01752
487.844	-148.13725
488.053	99.63213
488.262	52.43796
488.472	60.30366
488.681	24.90803
488.89	87.83359
489.099	-8.52117
489.308	30.8073
489.517	7.21022
489.726	-73.41315
489.935	-14.42044
490.144	-98.97666
490.353	-98.97666
490.562	11.14307
490.771	7.21022
490.98	-30.15183
491.189	44.57227
491.398	54.40439
491.607	68.16935
491.816	81.93432
492.025	-53.74891
492.234	176.32265
492.443	-108.80877
492.652	30.8073
492.86	44.57227
493.069	-57.68176
493.278	44.57227
493.487	-89.14454
493.696	-114.70804
493.904	34.74015
494.113	7.21022
494.322	38.673
494.53	-51.78249
494.739	-10.48759
494.948	-146.17082
495.156	-47.84964
495.365	-2.6219
495.574	46.53869
495.782	101.59855
495.991	83.90074
496.2	91.76644
496.408	-24.25256
496.617	-39.98395
496.825	70.13578
497.034	62.27008
497.242	-39.98395
497.451	62.27008
497.659	5.2438
497.868	-102.9095
498.076	-38.01752
498.285	-47.84964
498.493	-59.64818
498.701	-16.38686
498.91	95.69928
499.118	9.17664
499.326	-83.24527
499.535	32.77373
499.743	-73.41315
499.951	32.77373
500.16	-57.68176
500.368	-10.48759
500.576	79.96789
500.784	-39.98395
500.993	64.2365
501.201	78.00147
501.409	-79.31242
501.617	52.43796
501.825	-2.6219
502.034	48.50512
502.242	-95.04381
502.45	-65.54745
502.658	11.14307
502.866	7.21022
503.074	-38.01752
503.282	34.74015
503.49	-4.58832
503.698	-36.0511
503.906	-108.80877
504.114	48.50512
504.322	28.84088
504.53	-83.24527
504.738	36.70657
504.946	-61.61461
505.154	-30.15183
505.362	-36.0511
505.57	-26.21898
505.777	-4.58832
505.985	9.17664
506.193	36.70657
506.401	-47.84964
506.609	-24.25256
506.816	-71.44672
507.024	-53.74891
507.232	66.20293
507.44	5.2438
507.647	-2.6219
507.855	-57.68176
508.063	44.57227
508.271	-0.65547
508.478	78.00147
508.686	-20.31971
508.893	-0.65547
509.101	-47.84964
509.309	44.57227
509.516	-2.6219
509.724	54.40439
509.931	-98.97666
510.139	28.84088
510.346	101.59855
510.554	129.12848
510.761	-22.28613
510.969	-18.35329
511.176	-8.52117
511.384	-24.25256
511.591	46.53869
511.799	-81.27884
512.006	-39.98395
512.213	83.90074
512.421	74.06862
512.628	32.77373
512.835	-51.78249
513.043	-55.71534
513.25	38.673
513.457	28.84088
513.664	-45.88322
513.872	3.27737
514.079	30.8073
514.286	79.96789
514.493	-20.31971
514.701	17.04234
514.908	5.2438
515.115	60.30366
515.322	99.63213
515.529	50.47154
515.736	5.2438
515.943	-63.58103
516.15	-75.37957
516.357	-154.03652
516.564	32.77373
516.772	3.27737
516.979	70.13578
517.186	-75.37957
517.392	93.73286
517.599	36.70657
517.806	34.74015
518.013	-20.31971
518.22	93.73286
518.427	79.96789
518.634	-24.25256
518.841	-30.15183
519.048	-104.87593
519.255	42.60585
519.461	13.10949
519.668	-36.0511
519.875	107.49782
520.082	74.06862
520.289	-61.61461
520.495	-12.45402
520.702	-89.14454
520.909	30.8073
521.115	-87.17811
521.322	-6.55475
521.529	-22.28613
521.735	-83.24527
521.942	-120.60732
522.149	-51.78249
522.355	-49.81607
522.562	-38.01752
522.768	11.14307
522.975	-71.44672
523.181	-10.48759
523.388	-24.25256
523.595	-104.87593
523.801	-41.95037
524.007	60.30366
524.214	97.66571
524.42	-20.31971
524.627	-4.58832
524.833	-0.65547
525.04	50.47154
525.246	50.47154
525.452	-4.58832
525.659	-18.35329
525.865	44.57227
526.071	19.00876
526.278	32.77373
526.484	5.2438
526.69	-47.84964
526.896	66.20293
527.103	20.97519
527.309	64.2365
527.515	15.07591
527.721	20.97519
527.927	68.16935
528.134	152.72557
528.34	-14.42044
528.546	22.94161
528.752	-16.38686
528.958	-55.71534
529.164	223.51682
529.37	217.61755
529.576	520.44678
529.782	732.82054
529.988	874.40304
530.194	793.77967
530.4	475.21904
530.606	347.40151
530.812	194.02046
531.018	300.20734
531.224	197.95331
531.43	54.40439
531.636	9.17664
531.842	85.86716
532.048	178.28907
532.253	-61.61461
532.459	-34.08468
532.665	40.63942
532.871	115.36352
533.077	-67.51388
533.282	-26.21898
533.488	93.73286
533.694	13.10949
533.9	-51.78249
534.105	125.19564
534.311	-12.45402
534.517	-49.81607
534.722	85.86716
534.928	42.60585
535.133	87.83359
535.339	-47.84964
535.545	85.86716
535.75	40.63942
535.956	-47.84964
536.161	1.31095
536.367	160.59126
536.572	160.59126
536.778	166.49053
536.983	144.85987
537.189	107.49782
537.394	91.76644
537.6	117.32994
537.805	154.69199
538.01	30.8073
538.216	85.86716
538.421	125.19564
538.627	95.69928
538.832	70.13578
539.037	113.3971
539.242	24.90803
539.448	40.63942
539.653	60.30366
539.858	13.10949
540.064	-38.01752
540.269	72.1022
540.474	9.17664
540.679	85.86716
540.884	125.19564
541.089	40.63942
541.295	87.83359
541.5	28.84088
541.705	89.80001
541.91	28.84088
542.115	154.69199
542.32	119.29637
542.525	78.00147
542.73	72.1022
542.935	54.40439
543.14	156.65842
543.345	182.22192
543.55	72.1022
543.755	24.90803
543.96	85.86716
544.165	70.13578
544.37	60.30366
544.575	111.43067
544.78	-49.81607
544.984	68.16935
545.189	81.93432
545.394	30.8073
545.599	79.96789
545.804	11.14307
546.008	85.86716
546.213	70.13578
546.418	178.28907
546.623	87.83359
546.827	42.60585
547.032	58.33723
547.237	36.70657
547.441	30.8073
547.646	-41.95037
547.851	205.81901
548.055	97.66571
548.26	133.06133
548.464	85.86716
548.669	97.66571
548.874	99.63213
549.078	11.14307
549.283	11.14307
549.487	24.90803
549.692	117.32994
549.896	-67.51388
550.101	-2.6219
550.305	-53.74891
550.509	44.57227
550.714	129.12848
550.918	26.87446
551.123	81.93432
551.327	72.1022
551.531	-28.18541
551.736	60.30366
551.94	123.22921
552.144	-4.58832
552.349	-18.35329
552.553	174.35623
552.757	-39.98395
552.961	101.59855
553.165	-30.15183
553.37	78.00147
553.574	-53.74891
553.778	44.57227
553.982	83.90074
554.186	76.03505
554.39	83.90074
554.595	-34.08468
554.799	38.673
555.003	168.45696
555.207	22.94161
555.411	136.99418
555.615	19.00876
555.819	54.40439
556.023	-22.28613
556.227	184.18835
556.431	91.76644
556.635	119.29637
556.839	56.37081
557.043	83.90074
557.246	72.1022
557.45	81.93432
557.654	142.89345
557.858	1.31095
558.062	-98.97666
558.266	146.8263
558.469	140.92703
558.673	36.70657
558.877	72.1022
559.081	24.90803
559.285	89.80001
559.488	113.3971
559.692	152.72557
559.896	115.36352
560.099	48.50512
560.303	44.57227
560.507	81.93432
560.71	40.63942
560.914	101.59855
561.117	182.22192
561.321	85.86716
561.525	174.35623
561.728	56.37081
561.932	30.8073
562.135	123.22921
562.339	9.17664
562.542	83.90074
562.746	115.36352
562.949	109.46425
563.152	-43.91679
563.356	123.22921
563.559	81.93432
563.763	74.06862
563.966	11.14307
564.169	148.79272
564.373	180.2555
564.576	58.33723
564.779	121.26279
564.983	148.79272
565.186	174.35623
565.389	93.73286
565.592	81.93432
565.796	133.06133
565.999	164.52411
566.202	205.81901
566.405	91.76644
566.608	52.43796
566.812	9.17664
567.015	109.46425
567.218	95.69928
567.421	105.5314
567.624	81.93432
567.827	-30.15183
568.03	48.50512
568.233	119.29637
568.436	215.65112
568.639	68.16935
568.842	72.1022
569.045	48.50512
569.248	68.16935
569.451	119.29637
569.654	372.96501
569.857	941.26144
570.06	1790.75644
570.263	2602.8894
570.465	2891.95367
570.668	2563.56093
570.871	1863.51412
571.074	1356.17682
571.277	567.64095
571.479	298.24092
571.682	359.20005
571.885	192.05404
572.088	127.16206
572.29	166.49053
572.493	148.79272
572.696	26.87446
572.898	227.44967
573.101	115.36352
573.304	17.04234
573.506	42.60585
573.709	158.62484
573.911	119.29637
574.114	152.72557
574.317	56.37081
574.519	131.09491
574.722	44.57227
574.924	64.2365
575.127	74.06862
575.329	83.90074
575.532	89.80001
575.734	113.3971
575.936	87.83359
576.139	195.98689
576.341	101.59855
576.544	66.20293
576.746	154.69199
576.948	103.56498
577.151	78.00147
577.353	207.78543
577.555	101.59855
577.757	148.79272
577.96	-6.55475
578.162	131.09491
578.364	56.37081
578.566	99.63213
578.769	111.43067
578.971	131.09491
579.173	227.44967
579.375	103.56498
579.577	172.3898
579.779	111.43067
579.981	148.79272
580.184	312.00588
580.386	131.09491
580.588	205.81901
580.79	-26.21898
580.992	223.51682
581.194	172.3898
581.396	-12.45402
581.598	138.9606
581.8	294.30807
582.002	231.38251
582.203	245.14748
582.405	109.46425
582.607	140.92703
582.809	164.52411
583.011	115.36352
583.213	44.57227
583.415	209.75185
583.617	85.86716
583.818	103.56498
584.02	235.31536
584.222	121.26279
584.424	192.05404
584.625	125.19564
584.827	68.16935
585.029	144.85987
585.23	127.16206
585.432	215.65112
585.634	97.66571
585.835	188.12119
586.037	78.00147
586.239	162.55769
586.44	99.63213
586.642	225.48324
586.843	146.8263
587.045	28.84088
587.246	62.27008
587.448	113.3971
587.649	15.07591
587.851	140.92703
588.052	81.93432
588.254	201.88616
588.455	109.46425
588.657	115.36352
588.858	164.52411
589.059	56.37081
589.261	7.21022
589.462	95.69928
589.663	-12.45402
589.865	70.13578
590.066	178.28907
590.267	97.66571
590.468	150.75914
590.67	125.19564
590.871	93.73286
591.072	66.20293
591.273	95.69928
591.475	245.14748
591.676	-75.37957
591.877	140.92703
592.078	215.65112
592.279	91.76644
592.48	154.69199
592.681	97.66571
592.882	264.81171
593.083	172.3898
593.284	89.80001
593.485	180.2555
593.686	152.72557
593.887	117.32994
594.088	168.45696
594.289	150.75914
594.49	44.57227
594.691	68.16935
594.892	34.74015
595.093	211.71828
595.294	76.03505
595.495	70.13578
595.696	140.92703
595.896	42.60585
596.097	48.50512
596.298	219.58397
596.499	109.46425
596.7	74.06862
596.9	243.18105
597.101	87.83359
597.302	142.89345
597.502	188.12119
597.703	60.30366
597.904	-8.52117
598.104	44.57227
598.305	115.36352
598.506	44.57227
598.706	144.85987
598.907	140.92703
599.107	81.93432
599.308	74.06862
599.508	117.32994
599.709	72.1022
599.909	213.6847
600.11	138.9606
600.31	46.53869
600.511	133.06133
600.711	123.22921
600.912	87.83359
601.112	129.12848
601.313	76.03505
601.513	-39.98395
601.713	113.3971
601.914	138.9606
602.114	107.49782
602.314	78.00147
602.515	74.06862
602.715	190.08762
602.915	11.14307
603.115	46.53869
603.316	168.45696
603.516	117.32994
603.716	76.03505
603.916	99.63213
604.116	172.3898
604.316	62.27008
604.517	78.00147
604.717	176.32265
604.917	160.59126
605.117	174.35623
605.317	136.99418
605.517	146.8263
605.717	40.63942
605.917	160.59126
606.117	142.89345
606.317	205.81901
606.517	140.92703
606.717	115.36352
606.917	50.47154
607.117	83.90074
607.317	154.69199
607.516	127.16206
607.716	172.3898
607.916	115.36352
608.116	125.19564
608.316	113.3971
608.516	131.09491
608.715	133.06133
608.915	211.71828
609.115	190.08762
609.315	142.89345
609.514	203.85258
609.714	40.63942
609.914	251.04675
610.114	174.35623
610.313	178.28907
610.513	76.03505
610.712	213.6847
610.912	76.03505
611.112	76.03505
611.311	254.9796
611.511	144.85987
611.71	197.95331
611.91	70.13578
612.109	215.65112
612.309	24.90803
612.508	105.5314
612.708	209.75185
612.907	87.83359
613.107	111.43067
613.306	186.15477
613.505	83.90074
613.705	215.65112
613.904	201.88616
614.104	205.81901
614.303	129.12848
614.502	117.32994
614.702	107.49782
614.901	58.33723
615.1	111.43067
615.299	142.89345
615.499	87.83359
615.698	97.66571
615.897	172.3898
616.096	123.22921
616.295	79.96789
616.494	20.97519
616.694	79.96789
616.893	32.77373
617.092	258.91244
617.291	150.75914
617.49	34.74015
617.689	-38.01752
617.888	201.88616
618.087	81.93432
618.286	79.96789
618.485	28.84088
618.684	119.29637
618.883	109.46425
619.082	20.97519
619.281	99.63213
619.48	180.2555
619.679	138.9606
619.878	160.59126
620.076	207.78543
620.275	97.66571
620.474	99.63213
620.673	-24.25256
620.872	70.13578
621.07	60.30366
621.269	166.49053
621.468	93.73286
621.667	40.63942
621.865	203.85258
622.064	-71.44672
622.263	138.9606
622.461	64.2365
622.66	-38.01752
622.859	56.37081
623.057	152.72557
623.256	113.3971
623.455	87.83359
623.653	123.22921
623.852	170.42338
624.05	142.89345
624.249	42.60585
624.447	221.55039
624.646	219.58397
624.844	93.73286
625.043	111.43067
625.241	91.76644
625.439	103.56498
625.638	101.59855
625.836	52.43796
626.035	76.03505
626.233	125.19564
626.431	76.03505
626.63	-18.35329
626.828	140.92703
627.026	144.85987
627.225	83.90074
627.423	105.5314
627.621	-0.65547
627.819	79.96789
628.017	136.99418
628.216	113.3971
628.414	127.16206
628.612	113.3971
628.81	99.63213
629.008	46.53869
629.206	48.50512
629.404	24.90803
629.602	50.47154
629.801	172.3898
629.999	97.66571
630.197	56.37081
630.395	20.97519
630.593	174.35623
630.791	142.89345
630.989	72.1022
631.187	79.96789
631.384	26.87446
631.582	64.2365
631.78	95.69928
631.978	64.2365
632.176	13.10949
632.374	76.03505
632.572	52.43796
632.769	64.2365
632.967	127.16206
633.165	22.94161
633.363	-20.31971
633.561	133.06133
633.758	107.49782
633.956	146.8263
634.154	50.47154
634.351	121.26279
634.549	125.19564
634.747	46.53869
634.944	121.26279
635.142	-14.42044
635.34	-26.21898
635.537	87.83359
635.735	129.12848
635.932	17.04234
636.13	111.43067
636.327	22.94161
636.525	99.63213
636.722	123.22921
636.92	225.48324
637.117	178.28907
637.315	-18.35329
637.512	-20.31971
637.709	50.47154
637.907	70.13578
638.104	81.93432
638.302	70.13578
638.499	123.22921
638.696	38.673
638.894	136.99418
639.091	178.28907
639.288	150.75914
639.485	3.27737
639.683	227.44967
639.88	58.33723
640.077	54.40439
640.274	52.43796
640.471	150.75914
640.669	119.29637
640.866	115.36352
641.063	68.16935
641.26	-71.44672
641.457	119.29637
641.654	9.17664
641.851	-75.37957
642.048	26.87446
642.245	101.59855
642.442	24.90803
642.639	36.70657
642.836	184.18835
643.033	123.22921
643.23	28.84088
643.427	40.63942
643.624	7.21022
643.821	83.90074
644.018	81.93432
644.215	3.27737
644.411	87.83359
644.608	129.12848
644.805	85.86716
645.002	129.12848
645.199	-30.15183
645.395	76.03505
645.592	136.99418
645.789	162.55769
645.986	36.70657
646.182	127.16206
646.379	62.27008
646.576	66.20293
646.772	121.26279
646.969	-0.65547
647.166	142.89345
647.362	52.43796
647.559	17.04234
647.755	89.80001
647.952	58.33723
648.148	72.1022
648.345	105.5314
648.541	20.97519
648.738	52.43796
648.934	135.02776
649.131	190.08762
649.327	101.59855
649.524	70.13578
649.72	74.06862
649.916	83.90074
650.113	-2.6219
650.309	72.1022
650.506	85.86716
650.702	66.20293
650.898	15.07591
651.094	78.00147
651.291	20.97519
651.487	62.27008
651.683	148.79272
651.879	38.673
652.076	30.8073
652.272	62.27008
652.468	-6.55475
652.664	131.09491
652.86	78.00147
653.056	13.10949
653.253	26.87446
653.449	28.84088
653.645	247.1139
653.841	54.40439
654.037	15.07591
654.233	70.13578
654.429	-24.25256
654.625	136.99418
654.821	78.00147
655.017	105.5314
655.213	54.40439
655.409	-14.42044
655.605	-20.31971
655.8	154.69199
655.996	28.84088
656.192	-0.65547
656.388	197.95331
656.584	91.76644
656.78	97.66571
656.975	117.32994
657.171	197.95331
657.367	131.09491
657.563	74.06862
657.758	54.40439
657.954	113.3971
658.15	150.75914
658.345	30.8073
658.541	135.02776
658.737	5.2438
658.932	87.83359
659.128	13.10949
659.324	87.83359
659.519	158.62484
659.715	38.673
659.91	-30.15183
660.106	93.73286
660.301	44.57227
660.497	213.6847
660.692	99.63213
660.888	-45.88322
661.083	52.43796
661.279	54.40439
661.474	28.84088
661.669	-8.52117
661.865	13.10949
662.06	117.32994
662.256	38.673
662.451	85.86716
662.646	127.16206
662.841	-24.25256
663.037	91.76644
663.232	50.47154
663.427	115.36352
663.623	-49.81607
663.818	48.50512
664.013	203.85258
664.208	24.90803
664.403	74.06862
664.598	117.32994
664.794	119.29637
664.989	22.94161
665.184	68.16935
665.379	52.43796
665.574	70.13578
665.769	-73.41315
665.964	-12.45402
666.159	66.20293
666.354	-16.38686
666.549	131.09491
666.744	74.06862
666.939	78.00147
667.134	107.49782
667.329	58.33723
667.524	89.80001
667.719	-12.45402
667.913	48.50512
668.108	215.65112
668.303	50.47154
668.498	162.55769
668.693	74.06862
668.887	95.69928
669.082	9.17664
669.277	5.2438
669.472	125.19564
669.666	186.15477
669.861	-2.6219
670.056	87.83359
670.251	19.00876
670.445	87.83359
670.64	-8.52117
670.834	89.80001
671.029	123.22921
671.224	36.70657
671.418	79.96789
671.613	56.37081
671.807	64.2365
672.002	113.3971
672.196	34.74015
672.391	-14.42044
672.585	-18.35329
672.78	52.43796
672.974	-38.01752
673.169	-169.76791
673.363	-65.54745
673.557	70.13578
673.752	38.673
673.946	28.84088
674.14	40.63942
674.335	54.40439
674.529	93.73286
674.723	170.42338
674.918	15.07591
675.112	95.69928
675.306	13.10949
675.5	7.21022
675.695	105.5314
675.889	-18.35329
676.083	44.57227
676.277	26.87446
676.471	-20.31971
676.665	87.83359
676.859	42.60585
677.053	97.66571
677.248	79.96789
677.442	89.80001
677.636	32.77373
677.83	54.40439
678.024	72.1022
678.218	56.37081
678.412	74.06862
678.606	79.96789
678.8	34.74015
678.993	-18.35329
679.187	48.50512
679.381	-79.31242
679.575	-116.67447
679.769	76.03505
679.963	19.00876
680.157	-6.55475
680.35	121.26279
680.544	-6.55475
680.738	-43.91679
680.932	13.10949
681.125	76.03505
681.319	36.70657
681.513	-14.42044
681.707	111.43067
681.9	-59.64818
682.094	93.73286
682.288	30.8073
682.481	103.56498
682.675	56.37081
682.868	9.17664
683.062	70.13578
683.256	58.33723
683.449	-30.15183
683.643	-10.48759
683.836	60.30366
684.03	-26.21898
684.223	-10.48759
684.416	87.83359
684.61	89.80001
684.803	66.20293
684.997	-39.98395
685.19	121.26279
685.384	13.10949
685.577	113.3971
685.77	28.84088
685.964	76.03505
686.157	74.06862
686.35	-12.45402
686.543	30.8073
686.737	-24.25256
686.93	58.33723
687.123	-4.58832
687.316	3.27737
687.51	-79.31242
687.703	72.1022
687.896	50.47154
688.089	34.74015
688.282	36.70657
688.475	40.63942
688.668	36.70657
688.861	26.87446
689.054	-24.25256
689.247	136.99418
689.441	24.90803
689.634	19.00876
689.827	60.30366
690.019	109.46425
690.212	135.02776
690.405	40.63942
690.598	15.07591
690.791	-55.71534
690.984	13.10949
691.177	-14.42044
691.37	95.69928
691.563	56.37081
691.755	186.15477
691.948	211.71828
692.141	13.10949
692.334	44.57227
692.527	123.22921
692.719	3.27737
692.912	7.21022
693.105	-36.0511
693.297	148.79272
693.49	-0.65547
693.683	-51.78249
693.875	103.56498
694.068	-71.44672
694.261	70.13578
694.453	26.87446
694.646	28.84088
694.838	56.37081
695.031	15.07591
695.223	-10.48759
695.416	46.53869
695.608	66.20293
695.801	91.76644
695.993	5.2438
696.186	3.27737
696.378	-97.01023
696.571	-85.21169
696.763	19.00876
696.955	3.27737
697.148	-43.91679
697.34	22.94161
697.532	48.50512
697.725	60.30366
697.917	13.10949
698.109	-51.78249
698.302	24.90803
698.494	-38.01752
698.686	85.86716
698.878	74.06862
699.07	-16.38686
699.263	-41.95037
699.455	-53.74891
699.647	70.13578
699.839	56.37081
700.031	-69.4803
700.223	105.5314
700.415	146.8263
700.607	24.90803
700.799	20.97519
700.991	-26.21898
701.183	62.27008
701.375	11.14307
701.567	-22.28613
701.759	85.86716
701.951	34.74015
702.143	30.8073
702.335	22.94161
702.527	68.16935
702.719	-10.48759
702.911	48.50512
703.102	11.14307
703.294	-75.37957
703.486	3.27737
703.678	-28.18541
703.87	9.17664
704.061	60.30366
704.253	72.1022
704.445	170.42338
704.637	83.90074
704.828	-22.28613
705.02	22.94161
705.212	197.95331
705.403	-98.97666
705.595	-0.65547
705.786	-49.81607
705.978	107.49782
706.17	123.22921
706.361	113.3971
706.553	83.90074
706.744	278.57668
706.936	-28.18541
707.127	42.60585
707.319	-59.64818
707.51	85.86716
707.702	62.27008
707.893	142.89345
708.084	19.00876
708.276	89.80001
708.467	54.40439
708.658	5.2438
708.85	-22.28613
709.041	-6.55475
709.232	-43.91679
709.424	36.70657
709.615	42.60585
709.806	95.69928
709.997	52.43796
710.189	152.72557
710.38	93.73286
710.571	-16.38686
710.762	48.50512
710.953	-59.64818
711.145	-41.95037
711.336	97.66571
711.527	-69.4803
711.718	-128.47301
711.909	52.43796
712.1	129.12848
712.291	76.03505
712.482	-34.08468
712.673	125.19564
712.864	148.79272
713.055	15.07591
713.246	19.00876
713.437	22.94161
713.628	36.70657
713.819	22.94161
714.009	58.33723
714.2	9.17664
714.391	68.16935
714.582	54.40439
714.773	-36.0511
714.964	121.26279
715.154	107.49782
715.345	22.94161
715.536	-51.78249
715.727	3.27737
715.917	48.50512
716.108	22.94161
716.299	-20.31971
716.489	119.29637
716.68	56.37081
716.871	76.03505
717.061	42.60585
717.252	50.47154
717.442	72.1022
717.633	-2.6219
717.824	-24.25256
718.014	123.22921
718.205	13.10949
718.395	-49.81607
718.586	46.53869
718.776	17.04234
718.967	66.20293
719.157	34.74015
719.347	3.27737
719.538	-53.74891
719.728	79.96789
719.918	38.673
720.109	89.80001
720.299	115.36352
720.489	-10.48759
720.68	79.96789
720.87	30.8073
721.06	-16.38686
721.251	26.87446
721.441	19.00876
721.631	91.76644
721.821	168.45696
722.011	119.29637
722.201	-97.01023
722.392	135.02776
722.582	38.673
722.772	-20.31971
722.962	-26.21898
723.152	81.93432
723.342	99.63213
723.532	-47.84964
723.722	85.86716
723.912	-51.78249
724.102	107.49782
724.292	-16.38686
724.482	83.90074
724.672	-0.65547
724.862	-0.65547
725.052	89.80001
725.242	15.07591
725.432	30.8073
725.621	68.16935
725.811	-32.11825
726.001	-120.60732
726.191	-63.58103
726.381	9.17664
726.57	133.06133
726.76	19.00876
726.95	-36.0511
727.14	5.2438
727.329	52.43796
727.519	-0.65547
727.709	101.59855
727.898	-26.21898
728.088	78.00147
728.278	3.27737
728.467	95.69928
728.657	-47.84964
728.846	19.00876
729.036	-6.55475
729.225	85.86716
729.415	-10.48759
729.605	20.97519
729.794	-24.25256
729.983	87.83359
730.173	-24.25256
730.362	144.85987
730.552	-16.38686
730.741	7.21022
730.931	52.43796
731.12	81.93432
731.309	74.06862
731.499	164.52411
731.688	119.29637
731.877	-43.91679
732.066	1.31095
732.256	-69.4803
732.445	87.83359
732.634	-49.81607
732.823	-77.346
733.013	-14.42044
733.202	87.83359
733.391	60.30366
733.58	58.33723
733.769	-10.48759
733.958	-30.15183
734.147	28.84088
734.337	-16.38686
734.526	95.69928
734.715	22.94161
734.904	52.43796
735.093	-0.65547
735.282	28.84088
735.471	-14.42044
735.66	26.87446
735.849	46.53869
736.037	32.77373
736.226	-8.52117
736.415	32.77373
736.604	70.13578
736.793	44.57227
736.982	-22.28613
737.171	-45.88322
737.359	-18.35329
737.548	-65.54745
737.737	-12.45402
737.926	44.57227
738.115	5.2438
738.303	34.74015
738.492	85.86716
738.681	-14.42044
738.869	46.53869
739.058	101.59855
739.247	-67.51388
739.435	3.27737
739.624	52.43796
739.812	-18.35329
740.001	34.74015
740.19	237.28178
740.378	-81.27884
740.567	121.26279
740.755	125.19564
740.944	42.60585
741.132	79.96789
741.321	42.60585
741.509	56.37081
741.697	60.30366
741.886	38.673
742.074	9.17664
742.263	103.56498
742.451	-2.6219
742.639	38.673
742.828	20.97519
743.016	76.03505
743.204	-53.74891
743.392	148.79272
743.581	127.16206
743.769	19.00876
743.957	133.06133
744.145	28.84088
744.333	138.9606
744.522	-53.74891
744.71	-89.14454
744.898	74.06862
745.086	156.65842
745.274	140.92703
745.462	40.63942
745.65	-12.45402
745.838	76.03505
746.026	142.89345
746.214	-14.42044
746.402	123.22921
746.59	133.06133
746.778	-51.78249
746.966	52.43796
747.154	-53.74891
747.342	38.673
747.53	26.87446
747.718	76.03505
747.906	152.72557
748.093	154.69199
748.281	-112.74162
748.469	121.26279
748.657	-16.38686
748.845	-14.42044
749.032	-43.91679
749.22	62.27008
749.408	-32.11825
749.596	211.71828
749.783	-57.68176
749.971	58.33723
750.159	40.63942
750.346	-118.64089
750.534	48.50512
750.721	-20.31971
750.909	22.94161
751.097	9.17664
751.284	-59.64818
751.472	87.83359
751.659	78.00147
751.847	-2.6219
752.034	-132.40586
752.222	121.26279
752.409	-85.21169
752.597	123.22921
752.784	54.40439
752.971	28.84088
753.159	135.02776
753.346	115.36352
753.533	15.07591
753.721	-26.21898
753.908	50.47154
754.095	40.63942
754.283	70.13578
754.47	-83.24527
754.657	109.46425
754.844	42.60585
755.032	-26.21898
755.219	17.04234
755.406	111.43067
755.593	-51.78249
755.78	-83.24527
755.967	15.07591
756.155	-14.42044
756.342	17.04234
756.529	28.84088
756.716	60.30366
756.903	-30.15183
757.09	60.30366
757.277	-41.95037
757.464	-47.84964
757.651	11.14307
757.838	44.57227
758.025	26.87446
758.212	105.5314
758.399	-4.58832
758.585	5.2438
758.772	50.47154
758.959	-2.6219
759.146	58.33723
759.333	-0.65547
759.52	3.27737
759.706	-12.45402
759.893	160.59126
760.08	-102.9095
760.267	11.14307
760.453	-32.11825
760.64	101.59855
760.827	28.84088
761.013	-30.15183
761.2	-124.54016
761.387	111.43067
761.573	-12.45402
761.76	42.60585
761.946	-61.61461
762.133	28.84088
762.32	-41.95037
762.506	-63.58103
762.693	-4.58832
762.879	-14.42044
763.066	-47.84964
763.252	-12.45402
763.439	-30.15183
763.625	-0.65547
763.811	9.17664
763.998	-34.08468
764.184	5.2438
764.371	123.22921
764.557	17.04234
764.743	-49.81607
764.929	85.86716
765.116	70.13578
765.302	15.07591
765.488	13.10949
765.675	113.3971
765.861	-43.91679
766.047	87.83359
766.233	7.21022
766.419	-146.17082
766.605	-28.18541
766.792	70.13578
766.978	60.30366
767.164	111.43067
767.35	-97.01023
767.536	9.17664
767.722	56.37081
767.908	3.27737
768.094	5.2438
768.28	58.33723
768.466	-65.54745
768.652	-41.95037
768.838	9.17664
769.024	46.53869
769.21	-59.64818
769.396	-71.44672
769.582	70.13578
769.767	36.70657
769.953	142.89345
770.139	138.9606
770.325	13.10949
770.511	20.97519
770.697	-28.18541
770.882	1.31095
771.068	-4.58832
771.254	3.27737
771.44	7.21022
771.625	-73.41315
771.811	9.17664
771.997	-20.31971
772.182	-65.54745
772.368	-122.57374
772.553	-59.64818
772.739	9.17664
772.925	-165.83506
773.11	30.8073
773.296	-114.70804
773.481	42.60585
773.667	95.69928
773.852	38.673
774.038	42.60585
774.223	-24.25256
774.409	-38.01752
774.594	-112.74162
774.779	-59.64818
774.965	-89.14454
775.15	11.14307
775.335	-38.01752
775.521	109.46425
775.706	-0.65547
775.891	11.14307
776.077	-38.01752
776.262	24.90803
776.447	89.80001
776.632	-45.88322
776.818	99.63213
777.003	87.83359
777.188	40.63942
777.373	97.66571
777.558	-34.08468
777.743	46.53869
777.929	-30.15183
778.114	56.37081
778.299	62.27008
778.484	85.86716
778.669	46.53869
778.854	72.1022
779.039	28.84088
779.224	54.40439
779.409	19.00876
779.594	19.00876
779.779	48.50512
779.964	34.74015
780.149	-36.0511
780.333	-8.52117
780.518	5.2438
780.703	111.43067
780.888	68.16935
781.073	30.8073
781.258	95.69928
781.442	93.73286
781.627	99.63213
781.812	19.00876
781.997	101.59855
782.181	36.70657
782.366	158.62484
782.551	121.26279
782.735	22.94161
782.92	11.14307
783.105	-4.58832
783.289	72.1022
783.474	180.2555
783.658	101.59855
783.843	58.33723
784.028	76.03505
784.212	36.70657
784.397	81.93432
784.581	160.59126
784.766	156.65842
784.95	-67.51388
785.134	172.3898
785.319	87.83359
785.503	176.32265
785.688	140.92703
785.872	85.86716
786.056	233.34894
786.241	103.56498
786.425	-4.58832
786.609	32.77373
786.794	223.51682
786.978	168.45696
787.162	170.42338
787.346	266.77814
787.531	331.67012
787.715	280.5431
787.899	333.63654
788.083	306.10661
788.267	384.76356
788.451	406.39421
788.636	475.21904
788.82	494.88328
789.004	547.97672
789.188	665.96213
789.372	644.33147
789.556	654.16359
789.74	803.61179
789.924	888.168
790.108	962.8921
790.292	962.8921
790.476	882.26873
790.66	949.12713
790.844	896.0337
791.028	732.82054
791.211	791.81324
791.395	752.48477
791.579	518.48036
791.763	567.64095
791.947	536.17817
792.13	459.48765
792.314	396.5621
792.498	498.81613
792.682	441.78984
792.865	465.38692
793.049	433.92415
793.233	376.89786
793.417	422.1256
793.6	492.91685
793.784	547.97672
793.967	638.4322
794.151	679.7271
794.335	734.78696
794.518	955.02641
794.702	848.83953
794.885	1047.44832
795.069	1228.35929
795.252	1259.82207
795.436	1246.0571
795.619	1124.13884
795.803	1067.11255
795.986	1043.51547
796.169	956.99283
796.353	1029.7505
796.536	896.0337
796.72	833.10814
796.903	734.78696
797.086	671.8614
797.27	608.93585
797.453	603.03658
797.636	516.51394
797.819	522.41321
798.003	469.31977
798.186	428.02487
798.369	494.88328
798.552	459.48765
798.735	485.05116
798.918	439.82342
799.102	557.80883
799.285	518.48036
799.468	353.30078
799.651	475.21904
799.834	547.97672
800.017	608.93585
800.2	632.53293
800.383	605.003
800.566	683.65995
800.749	601.07015
800.932	520.44678
801.115	693.49206
801.298	610.90227
801.481	601.07015
801.664	601.07015
801.847	721.02199
802.029	764.28331
802.212	774.11543
802.395	791.81324
802.578	758.38404
802.761	872.43661
802.943	870.47019
803.126	898.00012
803.309	1002.22057
803.492	941.26144
803.674	1149.70234
803.857	1037.6162
804.04	1161.50089
804.222	1004.187
804.405	966.82495
804.588	886.20158
804.77	1004.187
804.953	892.10085
805.135	789.84682
805.318	699.39133
805.5	825.24245
805.683	825.24245
805.865	803.61179
806.048	703.32418
806.23	807.54463
806.413	795.74609
806.595	837.04099
806.778	937.32859
806.96	858.67165
807.142	943.22786
807.325	764.28331
807.507	701.35776
807.689	717.08915
807.872	709.22345
808.054	606.96942
808.236	744.61908
808.418	587.30519
808.601	363.1329
808.783	504.7154
808.965	382.79713
809.147	447.68911
809.329	353.30078
809.512	748.55192
809.694	418.19276
809.876	278.57668
810.058	339.53581
810.24	376.89786
810.422	363.1329
810.604	268.74456
810.786	437.85699
810.968	315.93873
811.15	331.67012
811.332	323.80442
811.514	260.87887
811.696	274.64383
811.878	292.34164
812.06	323.80442
812.242	319.87158
812.424	217.61755
812.605	166.49053
812.787	241.21463
812.969	190.08762
813.151	345.43508
813.333	211.71828
813.514	162.55769
813.696	113.3971
813.878	154.69199
814.06	237.28178
814.241	168.45696
814.423	239.24821
814.605	127.16206
814.786	74.06862
814.968	87.83359
815.149	135.02776
815.331	28.84088
815.513	221.55039
815.694	66.20293
815.876	103.56498
816.057	119.29637
816.239	136.99418
816.42	217.61755
816.602	17.04234
816.783	72.1022
816.965	28.84088
817.146	160.59126
817.327	144.85987
817.509	170.42338
817.69	166.49053
817.872	66.20293
818.053	28.84088
818.234	1.31095
818.415	15.07591
818.597	142.89345
818.778	13.10949
818.959	42.60585
819.14	142.89345
819.322	85.86716
819.503	87.83359
819.684	117.32994
819.865	76.03505
820.046	95.69928
820.227	154.69199
820.409	225.48324
820.59	213.6847
820.771	-36.0511
820.952	229.41609
821.133	207.78543
821.314	176.32265
821.495	150.75914
821.676	109.46425
821.857	127.16206
822.038	127.16206
822.219	174.35623
822.4	186.15477
822.58	146.8263
822.761	233.34894
822.942	123.22921
823.123	205.81901
823.304	172.3898
823.485	298.24092
823.665	219.58397
823.846	152.72557
824.027	229.41609
824.208	306.10661
824.388	331.67012
824.569	213.6847
824.75	231.38251
824.931	343.46866
825.111	254.9796
825.292	186.15477
825.472	87.83359
825.653	213.6847
825.834	168.45696
826.014	48.50512
826.195	74.06862
826.375	146.8263
826.556	241.21463
826.736	131.09491
826.917	127.16206
827.097	76.03505
827.278	101.59855
827.458	81.93432
827.638	231.38251
827.819	103.56498
827.999	219.58397
828.18	146.8263
828.36	113.3971
828.54	166.49053
828.721	225.48324
828.901	217.61755
829.081	140.92703
829.261	121.26279
829.442	146.8263
829.622	62.27008
829.802	152.72557
829.982	268.74456
830.162	7.21022
830.343	125.19564
830.523	233.34894
830.703	85.86716
830.883	123.22921
831.063	95.69928
831.243	50.47154
831.423	42.60585
831.603	74.06862
831.783	81.93432
831.963	-2.6219
832.143	3.27737
832.323	85.86716
832.503	42.60585
832.683	-85.21169
832.863	97.66571
833.043	144.85987
833.223	148.79272
833.402	79.96789
833.582	-22.28613
833.762	-6.55475
833.942	28.84088
834.122	135.02776
834.301	111.43067
834.481	241.21463
834.661	115.36352
834.841	-12.45402
835.02	20.97519
835.2	142.89345
835.38	-16.38686
835.559	3.27737
835.739	60.30366
835.918	15.07591
836.098	48.50512
836.278	83.90074
836.457	7.21022
836.637	-55.71534
836.816	20.97519
836.996	87.83359
837.175	-4.58832
837.355	184.18835
837.534	34.74015
837.714	93.73286
837.893	68.16935
838.072	79.96789
838.252	158.62484
838.431	111.43067
838.61	44.57227
838.79	54.40439
838.969	166.49053
839.148	138.9606
839.328	127.16206
839.507	97.66571
839.686	123.22921
839.865	111.43067
840.045	81.93432
840.224	9.17664
840.403	138.9606
840.582	148.79272
840.761	95.69928
840.94	117.32994
841.119	83.90074
841.298	101.59855
841.478	152.72557
841.657	103.56498
841.836	34.74015
842.015	58.33723
842.194	105.5314
842.373	209.75185
842.552	83.90074
842.73	89.80001
842.909	40.63942
843.088	79.96789
843.267	121.26279
843.446	136.99418
843.625	111.43067
843.804	103.56498
843.983	225.48324
844.161	170.42338
844.34	99.63213
844.519	79.96789
844.698	79.96789
844.876	93.73286
845.055	34.74015
845.234	164.52411
845.413	138.9606
845.591	194.02046
845.77	72.1022
845.948	213.6847
846.127	274.64383
846.306	105.5314
846.484	50.47154
846.663	32.77373
846.841	5.2438
847.02	60.30366
847.198	158.62484
847.377	184.18835
847.555	95.69928
847.734	54.40439
847.912	129.12848
848.091	170.42338
848.269	256.94602
848.447	249.08033
848.626	249.08033
848.804	188.12119
848.982	282.50953
849.161	89.80001
849.339	317.90515
849.517	310.03946
849.696	144.85987
849.874	131.09491
850.052	282.50953
850.23	274.64383
850.408	349.36793
850.587	313.9723
850.765	199.91973
850.943	274.64383
851.121	308.07303
851.299	302.17376
851.477	280.5431
851.655	376.89786
851.833	327.73727
852.011	312.00588
852.189	412.29349
852.367	376.89786
852.545	441.78984
852.723	294.30807
852.901	420.15918
853.079	369.03217
853.257	441.78984
853.435	382.79713
853.613	481.11831
853.791	518.48036
853.968	504.7154
854.146	414.25991
854.324	510.61467
854.502	618.76797
854.68	485.05116
854.857	571.5738
855.035	565.67453
855.213	669.89498
855.39	675.79425
855.568	683.65995
855.746	624.66724
855.923	772.14901
856.101	783.94755
856.279	848.83953
856.456	854.7388
856.634	713.1563
856.811	917.66436
856.989	955.02641
857.166	1265.72134
857.344	1108.40745
857.521	1352.24398
857.699	1356.17682
857.876	1334.54616
858.054	1523.32283
858.231	1896.94332
858.409	1987.39881
858.586	2243.03388
858.763	2465.23975
858.941	2752.33759
859.118	3064.99895
859.295	3715.88517
859.473	4130.80055
859.65	5021.59045
859.827	5721.63726
860.004	6602.59504
860.182	7752.95286
860.359	8563.11939
860.536	9337.8903
860.713	10063.50062
860.89	10110.69478
861.067	10051.70207
861.245	9607.29034
861.422	9109.78516
861.599	8260.29016
861.776	7731.3222
861.953	6956.55129
862.13	6343.02713
862.307	5460.10292
862.484	5078.61674
862.661	4683.36559
862.838	4124.90128
863.015	3741.44868
863.192	3497.61215
863.369	3106.29385
863.545	3177.0851
863.722	3033.53617
863.899	3047.30114
864.076	3192.81649
864.253	3444.51871
864.43	3727.68371
864.606	3963.65454
864.783	4144.56552
864.96	4423.79767
865.137	4197.65896
865.313	4246.81955
865.49	4046.24434
865.667	4075.74069
865.843	3688.35524
866.02	3664.75815
866.197	3330.46614
866.373	3295.07051
866.55	2986.342
866.726	3019.77121
866.903	2707.10985
867.079	2638.28502
867.256	2640.25145
867.432	2370.85141
867.609	2305.95943
867.785	2400.34777
867.962	2353.1536
868.138	2610.75509
868.315	2392.48207
868.491	2455.40763
868.667	2581.25874
868.844	2770.03541
869.02	2768.06898
869.196	3002.07339
869.373	2974.54346
869.549	3104.32742
869.725	3383.55958
869.902	3521.20923
870.078	3837.80343
870.254	3796.50854
870.43	3759.14649
870.606	3749.31437
870.783	3806.34065
870.959	3873.19906
871.135	3912.52753
871.311	3558.57128
871.487	3495.64572
871.663	3182.98437
871.839	2882.12155
872.015	2823.12884
872.191	2817.22957
872.367	2777.9011
872.543	2665.81495
872.719	2549.79596
872.895	2398.38134
873.071	2443.60909
873.247	2290.22804
873.423	2394.4485
873.599	2207.63825
873.775	2270.56381
873.95	2284.32877
874.126	2184.04117
874.302	2260.73169
874.478	2252.86599
874.654	2123.08204
874.829	2069.9886
875.005	2052.29079
875.181	2235.16818
875.357	1940.20464
875.532	2001.16377
875.708	2022.79443
875.884	2010.99589
876.059	2018.86158
876.235	2119.14919
876.41	2172.24263
876.586	2180.10832
876.761	2303.99301
876.937	2579.29232
877.113	2895.88652
877.288	3190.85006
877.464	3297.03694
877.639	3765.04576
877.814	3961.68812
877.99	4390.36847
878.165	4522.11885
878.341	4649.93639
878.516	4750.22399
878.691	4946.86635
878.867	4697.13055
879.042	4620.44003
879.217	4496.55535
879.393	4390.36847
879.568	4185.86041
879.743	4083.60639
879.919	3810.2735
880.094	3723.75086
880.269	3489.74645
880.444	3403.22381
880.619	3084.66319
880.794	3019.77121
880.97	3076.79749
881.145	2968.64419
881.32	2830.99454
881.495	2758.23687
881.67	2777.9011
881.845	2565.52735
882.02	2421.97843
882.195	2459.34047
882.37	2516.36676
882.545	2506.53464
882.72	2416.07916
882.895	2372.81784
883.07	2339.38863
883.245	2486.87041
883.42	2390.51565
883.594	2404.28061
883.769	2484.90398
883.944	2406.24704
884.119	2246.96672
884.294	2197.80613
884.469	2123.08204
884.643	2016.89516
884.818	1845.81631
884.993	1910.70828
885.168	1771.09221
885.342	1633.44255
885.517	1643.27467
885.692	1430.90092
885.866	1419.10238
886.041	1318.81477
886.215	1289.31842
886.39	1312.9155
886.565	1153.63519
886.739	1230.32571
886.914	1096.60891
887.088	1094.64248
887.263	915.69793
887.437	734.78696
887.612	848.83953
887.786	736.75338
887.96	795.74609
888.135	658.09644
888.309	685.62637
888.484	781.98113
888.658	534.21175
888.832	508.64824
889.007	624.66724
889.181	536.17817
889.355	575.50665
889.529	628.60008
889.704	506.68182
889.878	585.33876
890.052	410.32706
890.226	583.37234
890.401	315.93873
890.575	508.64824
890.749	477.18547
890.923	547.97672
891.097	406.39421
891.271	378.86428
891.445	435.89057
891.619	349.36793
891.793	498.81613
891.967	443.75626
892.141	461.45408
892.315	372.96501
892.489	404.42779
892.663	398.52852
892.837	335.60296
893.011	396.5621
893.185	390.66283
893.359	382.79713
893.533	329.70369
893.706	302.17376
893.88	298.24092
894.054	408.36064
894.228	349.36793
894.402	429.9913
894.575	335.60296
894.749	319.87158
894.923	315.93873
895.097	335.60296
895.27	380.83071
895.444	286.44237
895.617	144.85987
895.791	359.20005
895.965	443.75626
896.138	205.81901
896.312	331.67012
896.485	237.28178
896.659	231.38251
896.832	217.61755
897.006	410.32706
897.179	268.74456
897.353	233.34894
897.526	97.66571
897.7	160.59126
897.873	355.2672
898.047	40.63942
898.22	310.03946
898.393	211.71828
898.567	286.44237
898.74	335.60296
898.913	323.80442
899.087	278.57668
899.26	369.03217
899.433	313.9723
899.606	435.89057
899.78	449.65553
899.953	310.03946
900.126	359.20005
900.299	538.1446
900.472	428.02487
900.645	445.72269
900.818	394.59567
900.992	534.21175
901.165	551.90956
901.338	443.75626
901.511	557.80883
901.684	579.43949
901.857	593.20446
902.03	520.44678
902.203	494.88328
902.376	616.80154
902.549	530.2789
902.721	475.21904
902.894	551.90956
903.067	408.36064
903.24	341.50224
903.413	433.92415
903.586	455.55481
903.759	461.45408
903.931	443.75626
904.104	333.63654
904.277	319.87158
904.45	418.19276
904.622	333.63654
904.795	426.05845
904.968	429.9913
905.14	294.30807
905.313	418.19276
905.486	540.11102
905.658	496.8497
905.831	581.40592
906.003	514.54751
906.176	433.92415
906.348	593.20446
906.521	520.44678
906.693	561.74168
906.866	524.37963
907.038	465.38692
907.211	473.25262
907.383	437.85699
907.556	306.10661
907.728	215.65112
907.9	441.78984
908.073	323.80442
908.245	231.38251
908.417	205.81901
908.59	249.08033
908.762	186.15477
908.934	233.34894
909.107	174.35623
909.279	268.74456
909.451	207.78543
909.623	195.98689
909.795	231.38251
909.967	64.2365
910.14	256.94602
910.312	180.2555
910.484	50.47154
910.656	54.40439
910.828	95.69928
911	105.5314
911.172	142.89345
911.344	164.52411
911.516	176.32265
911.688	68.16935
911.86	-83.24527
912.032	17.04234
912.204	40.63942
912.376	13.10949
912.548	62.27008
912.72	83.90074
912.891	28.84088
913.063	-49.81607
913.235	97.66571
913.407	89.80001
913.579	30.8073
913.75	3.27737
913.922	89.80001
914.094	36.70657
914.266	136.99418
914.437	3.27737
914.609	-59.64818
914.781	40.63942
914.952	42.60585
915.124	136.99418
915.296	5.2438
915.467	60.30366
915.639	-61.61461
915.81	-20.31971
915.982	5.2438
916.153	42.60585
916.325	-8.52117
916.496	-10.48759
916.668	48.50512
916.839	-24.25256
917.011	113.3971
917.182	105.5314
917.353	38.673
917.525	20.97519
917.696	13.10949
917.867	66.20293
918.039	95.69928
918.21	-6.55475
918.381	-55.71534
918.553	26.87446
918.724	13.10949
918.895	103.56498
919.066	-2.6219
919.237	58.33723
919.409	-134.37228
919.58	-4.58832
919.751	95.69928
919.922	70.13578
920.093	-49.81607
920.264	-6.55475
920.435	-36.0511
920.606	68.16935
920.777	30.8073
920.948	26.87446
921.119	64.2365
921.29	34.74015
921.461	-20.31971
921.632	-45.88322
921.803	-57.68176
921.974	-34.08468
922.145	44.57227
922.316	58.33723
922.487	107.49782
922.657	-39.98395
922.828	-122.57374
922.999	-20.31971
923.17	7.21022
923.341	129.12848
923.511	26.87446
923.682	-41.95037
923.853	30.8073
924.023	72.1022
924.194	56.37081
924.365	32.77373
924.535	-12.45402
924.706	-104.87593
924.877	13.10949
925.047	32.77373
925.218	91.76644
925.388	24.90803
925.559	-106.84235
925.729	26.87446
925.9	-65.54745
926.07	19.00876
926.241	32.77373
926.411	81.93432
926.582	-73.41315
926.752	176.32265
926.922	44.57227
927.093	1.31095
927.263	28.84088
927.433	-39.98395
927.604	9.17664
927.774	22.94161
927.944	-120.60732
928.115	58.33723
928.285	125.19564
928.455	91.76644
928.625	13.10949
928.795	-95.04381
928.966	-69.4803
929.136	5.2438
929.306	-47.84964
929.476	19.00876
929.646	-10.48759
929.816	5.2438
929.986	42.60585
930.156	-106.84235
930.326	-122.57374
930.496	42.60585
930.666	74.06862
930.836	-2.6219
931.006	19.00876
931.176	-0.65547
931.346	-100.94308
931.516	-8.52117
931.686	42.60585
931.856	38.673
932.025	-85.21169
932.195	56.37081
932.365	78.00147
932.535	48.50512
932.705	107.49782
932.874	32.77373
933.044	-57.68176
933.214	-67.51388
933.384	48.50512
933.553	-8.52117
933.723	52.43796
933.893	93.73286
934.062	-75.37957
934.232	72.1022
934.401	-14.42044
934.571	-114.70804
934.74	146.8263
934.91	-18.35329
935.079	28.84088
935.249	142.89345
935.418	111.43067
935.588	121.26279
935.757	-63.58103
935.927	26.87446
936.096	-2.6219
936.266	64.2365
936.435	-97.01023
936.604	85.86716
936.774	-136.3387
936.943	22.94161
937.112	64.2365
937.282	109.46425
937.451	42.60585
937.62	7.21022
937.789	40.63942
937.958	44.57227
938.128	38.673
938.297	48.50512
938.466	76.03505
938.635	-10.48759
938.804	-95.04381
938.973	-10.48759
939.142	28.84088
939.312	101.59855
939.481	74.06862
939.65	15.07591
939.819	-20.31971
939.988	-16.38686
940.157	38.673
940.326	-79.31242
940.494	13.10949
940.663	-36.0511
940.832	-32.11825
941.001	62.27008
941.17	-38.01752
941.339	-8.52117
941.508	-12.45402
941.677	-4.58832
941.845	40.63942
942.014	-195.33141
942.183	9.17664
942.352	-36.0511
942.52	-16.38686
942.689	-116.67447
942.858	-30.15183
943.026	79.96789
943.195	15.07591
943.364	101.59855
943.532	24.90803
943.701	-69.4803
943.869	-34.08468
944.038	-26.21898
944.206	148.79272
944.375	9.17664
944.544	-34.08468
944.712	-63.58103
944.88	30.8073
945.049	-10.48759
945.217	76.03505
945.386	30.8073
945.554	156.65842
945.723	-165.83506
945.891	-59.64818
946.059	-20.31971
946.228	-12.45402
946.396	-38.01752
946.564	62.27008
946.732	-102.9095
946.901	-130.43943
947.069	-91.11096
947.237	32.77373
947.405	42.60585
947.573	30.8073
947.742	-26.21898
947.91	-75.37957
948.078	5.2438
948.246	-61.61461
948.414	68.16935
948.582	34.74015
948.75	-6.55475
948.918	26.87446
949.086	-22.28613
949.254	188.12119
949.422	50.47154
949.59	56.37081
949.758	60.30366
949.926	-14.42044
950.094	93.73286
950.262	24.90803
950.43	-45.88322
950.598	-71.44672
950.765	24.90803
950.933	129.12848
951.101	40.63942
951.269	83.90074
951.437	-57.68176
951.604	-14.42044
951.772	26.87446
951.94	83.90074
952.107	26.87446
952.275	-16.38686
952.443	-187.46572
952.61	11.14307
952.778	-51.78249
952.946	-24.25256
953.113	-30.15183
953.281	17.04234
953.448	-4.58832
953.616	38.673
953.783	11.14307
953.951	-81.27884
954.118	24.90803
954.286	-10.48759
954.453	72.1022
954.621	-95.04381
954.788	-55.71534
954.955	-34.08468
955.123	78.00147
955.29	1.31095
955.457	-79.31242
955.625	-38.01752
955.792	3.27737
955.959	-18.35329
956.126	91.76644
956.294	48.50512
956.461	-57.68176
956.628	-12.45402
956.795	-146.17082
956.962	-16.38686
957.13	91.76644
957.297	-8.52117
957.464	109.46425
957.631	-20.31971
957.798	-16.38686
957.965	3.27737
958.132	60.30366
958.299	15.07591
958.466	-24.25256
958.633	-2.6219
958.8	-73.41315
958.967	62.27008
959.134	-39.98395
959.301	62.27008
959.468	121.26279
959.634	-4.58832
959.801	20.97519
959.968	11.14307
960.135	103.56498
960.302	-28.18541
960.469	81.93432
960.635	58.33723
960.802	54.40439
960.969	-128.47301
961.135	-53.74891
961.302	15.07591
961.469	-6.55475
961.635	123.22921
961.802	-12.45402
961.969	28.84088
962.135	20.97519
962.302	72.1022
962.468	22.94161
962.635	83.90074
962.802	-24.25256
962.968	-55.71534
963.135	52.43796
963.301	40.63942
963.467	-16.38686
963.634	135.02776
963.8	11.14307
963.967	136.99418
964.133	-14.42044
964.299	-12.45402
964.466	-14.42044
964.632	15.07591
964.798	-20.31971
964.965	17.04234
965.131	36.70657
965.297	-57.68176
965.463	9.17664
965.63	-175.66718
965.796	-38.01752
965.962	42.60585
966.128	-16.38686
966.294	24.90803
966.46	-87.17811
966.627	107.49782
966.793	-22.28613
966.959	26.87446
967.125	9.17664
967.291	44.57227
967.457	-39.98395
967.623	64.2365
967.789	56.37081
967.955	60.30366
968.121	62.27008
968.287	-55.71534
968.452	-53.74891
968.618	-69.4803
968.784	81.93432
968.95	38.673
969.116	9.17664
969.282	17.04234
969.447	-18.35329
969.613	15.07591
969.779	-102.9095
969.945	-61.61461
970.11	-22.28613
970.276	-79.31242
970.442	64.2365
970.607	95.69928
970.773	-81.27884
970.939	-112.74162
971.104	52.43796
971.27	-30.15183
971.436	44.57227
971.601	-47.84964
971.767	34.74015
971.932	38.673
972.098	99.63213
972.263	50.47154
972.429	13.10949
972.594	-55.71534
972.759	40.63942
972.925	-16.38686
973.09	50.47154
973.256	50.47154
973.421	-67.51388
973.586	36.70657
973.752	11.14307
973.917	40.63942
974.082	64.2365
974.247	79.96789
974.413	22.94161
974.578	99.63213
974.743	-34.08468
974.908	-34.08468
975.074	9.17664
975.239	-36.0511
975.404	46.53869
975.569	81.93432
975.734	-189.43214
975.899	1.31095
976.064	-43.91679
976.229	-0.65547
976.394	-43.91679
976.559	42.60585
976.724	20.97519
976.889	42.60585
977.054	52.43796
977.219	42.60585
977.384	-6.55475
977.549	-67.51388
977.714	5.2438
977.879	-51.78249
978.043	-16.38686
978.208	-57.68176
978.373	107.49782
978.538	-12.45402
978.703	44.57227
978.867	-20.31971
979.032	-4.58832
979.197	30.8073
979.362	-22.28613
979.526	-63.58103
979.691	-93.07738
979.856	20.97519
980.02	74.06862
980.185	44.57227
980.349	-98.97666
980.514	-26.21898
980.678	-16.38686
980.843	109.46425
981.007	-83.24527
981.172	22.94161
981.336	22.94161
981.501	-36.0511
981.665	60.30366
981.83	-6.55475
981.994	-28.18541
982.159	-104.87593
982.323	-53.74891
982.487	-51.78249
982.652	135.02776
982.816	34.74015
982.98	46.53869
983.144	-104.87593
983.309	30.8073
983.473	99.63213
983.637	40.63942
983.801	-104.87593
983.966	-51.78249
984.13	-51.78249
984.294	-63.58103
984.458	-57.68176
984.622	113.3971
984.786	72.1022
984.95	56.37081
985.114	-85.21169
985.278	19.00876
985.442	-32.11825
985.606	-10.48759
985.77	103.56498
985.934	87.83359
986.098	-38.01752
986.262	-10.48759
986.426	3.27737
986.59	-57.68176
986.754	-89.14454
986.918	-120.60732
987.082	-106.84235
987.245	-73.41315
987.409	7.21022
987.573	-8.52117
987.737	-16.38686
987.9	85.86716
988.064	93.73286
988.228	131.09491
988.392	-71.44672
988.555	-2.6219
988.719	66.20293
988.882	11.14307
989.046	-55.71534
989.21	-112.74162
989.373	11.14307
989.537	93.73286
989.7	44.57227
989.864	-26.21898
990.027	-122.57374
990.191	99.63213
990.354	-61.61461
990.518	-95.04381
990.681	-79.31242
990.845	-6.55475
991.008	-98.97666
991.171	1.31095
991.335	78.00147
991.498	-49.81607
991.661	-14.42044
991.825	7.21022
991.988	28.84088
992.151	-91.11096
992.314	11.14307
992.478	17.04234
992.641	50.47154
992.804	-75.37957
992.967	-14.42044
993.13	-77.346
993.294	111.43067
993.457	-95.04381
993.62	17.04234
993.783	56.37081
993.946	-65.54745
994.109	5.2438
994.272	-36.0511
994.435	1.31095
994.598	166.49053
994.761	89.80001
994.924	3.27737
995.087	26.87446
995.25	-53.74891
995.413	1.31095
995.575	1.31095
995.738	-12.45402
995.901	-18.35329
996.064	-18.35329
996.227	-2.6219
996.39	-38.01752
996.552	-45.88322
996.715	121.26279
996.878	-154.03652
997.041	15.07591
997.203	142.89345
997.366	-45.88322
997.529	97.66571
997.691	28.84088
997.854	30.8073
998.016	-41.95037
998.179	28.84088
998.342	28.84088
998.504	-16.38686
998.667	-0.65547
998.829	54.40439
998.992	-4.58832
999.154	34.74015
999.317	30.8073
999.479	-2.6219
999.641	-49.81607
999.804	89.80001
999.966	13.10949
1000.128	52.43796
1000.291	136.99418
1000.453	-98.97666
1000.615	11.14307
1000.778	-79.31242
1000.94	-32.11825
1001.102	-18.35329
1001.264	13.10949
1001.427	50.47154
1001.589	-106.84235
1001.751	-30.15183
1001.913	-118.64089
1002.075	7.21022
1002.237	78.00147
1002.4	38.673
1002.562	103.56498
1002.724	48.50512
1002.886	64.2365
1003.048	-32.11825
1003.21	70.13578
1003.372	-112.74162
1003.534	17.04234
1003.696	95.69928
1003.858	28.84088
1004.02	-110.7752
1004.181	81.93432
1004.343	44.57227
1004.505	-6.55475
1004.667	-24.25256
1004.829	50.47154
1004.991	68.16935
1005.152	38.673
1005.314	52.43796
1005.476	44.57227
1005.638	5.2438
1005.799	-39.98395
1005.961	-18.35329
1006.123	-185.49929
1006.284	58.33723
1006.446	15.07591
1006.608	-12.45402
1006.769	66.20293
1006.931	-2.6219
1007.092	-79.31242
1007.254	58.33723
1007.416	56.37081
1007.577	-8.52117
1007.739	-87.17811
1007.9	17.04234
1008.061	113.3971
1008.223	-69.4803
1008.384	-0.65547
1008.546	13.10949
1008.707	-30.15183
1008.868	-126.50659
1009.03	40.63942
1009.191	-28.18541
1009.352	3.27737
1009.514	72.1022
1009.675	-39.98395
1009.836	-53.74891
1009.997	-87.17811
1010.159	32.77373
1010.32	-14.42044
1010.481	89.80001
1010.642	-14.42044
1010.803	-61.61461
1010.964	68.16935
1011.126	-26.21898
1011.287	5.2438
1011.448	24.90803
1011.609	-22.28613
1011.77	-36.0511
1011.931	-20.31971
1012.092	50.47154
1012.253	-53.74891
1012.414	-61.61461
1012.575	60.30366
1012.736	-20.31971
1012.896	5.2438
1013.057	17.04234
1013.218	-77.346
1013.379	-16.38686
1013.54	-43.91679
1013.701	30.8073
1013.861	48.50512
1014.022	-100.94308
1014.183	48.50512
1014.344	32.77373
1014.504	-51.78249
1014.665	5.2438
1014.826	-18.35329
1014.986	-10.48759
1015.147	-97.01023
1015.308	-0.65547
1015.468	34.74015
1015.629	46.53869
1015.789	-150.10367
1015.95	3.27737
1016.111	19.00876
1016.271	22.94161
1016.432	-57.68176
1016.592	-26.21898
1016.752	125.19564
1016.913	26.87446
1017.073	7.21022
1017.234	-28.18541
1017.394	26.87446
1017.554	-8.52117
1017.715	34.74015
1017.875	-38.01752
1018.035	-39.98395
1018.196	99.63213
1018.356	44.57227
1018.516	-36.0511
1018.676	-163.86864
1018.837	-20.31971
1018.997	121.26279
1019.157	-43.91679
1019.317	-128.47301
1019.477	-38.01752
1019.637	76.03505
1019.798	91.76644
1019.958	211.71828
1020.118	38.673
1020.278	-6.55475
1020.438	85.86716
1020.598	-20.31971
1020.758	-38.01752
1020.918	-26.21898
1021.078	103.56498
1021.238	72.1022
1021.397	-55.71534
1021.557	138.9606
1021.717	168.45696
1021.877	68.16935
1022.037	-2.6219
1022.197	13.10949
1022.357	62.27008
1022.516	-53.74891
1022.676	11.14307
1022.836	-36.0511
1022.996	121.26279
1023.155	62.27008
1023.315	-14.42044
1023.475	-16.38686
1023.634	50.47154
1023.794	83.90074
1023.954	-116.67447
1024.113	162.55769
1024.273	127.16206
1024.432	-118.64089
1024.592	144.85987
1024.751	24.90803
1024.911	-71.44672
1025.07	44.57227
1025.23	11.14307
1025.389	70.13578
1025.549	-6.55475
1025.708	34.74015
1025.868	-55.71534
1026.027	-49.81607
1026.186	66.20293
1026.346	-85.21169
1026.505	-4.58832
1026.664	-10.48759
1026.823	42.60585
1026.983	17.04234
1027.142	28.84088
1027.301	60.30366
1027.46	15.07591
1027.62	-47.84964
1027.779	-57.68176
1027.938	-24.25256
1028.097	70.13578
1028.256	-14.42044
1028.415	-6.55475
1028.574	-51.78249
1028.733	-71.44672
1028.892	17.04234
1029.051	-26.21898
1029.21	36.70657
1029.369	68.16935
1029.528	-26.21898
1029.687	-26.21898
1029.846	19.00876
1030.005	125.19564
1030.164	-16.38686
1030.323	-0.65547
1030.482	38.673
1030.641	-6.55475
1030.799	26.87446
1030.958	-98.97666
1031.117	-28.18541
1031.276	64.2365
1031.435	91.76644
1031.593	-61.61461
1031.752	-73.41315
1031.911	54.40439
1032.069	-53.74891
1032.228	-32.11825
1032.387	-38.01752
1032.545	62.27008
1032.704	62.27008
1032.862	-136.3387
1033.021	-22.28613
1033.179	-6.55475
1033.338	66.20293
1033.496	-71.44672
1033.655	93.73286
1033.813	-49.81607
1033.972	60.30366
1034.13	-0.65547
1034.289	36.70657
1034.447	-93.07738
1034.605	-161.90221
1034.764	-95.04381
1034.922	11.14307
1035.08	-12.45402
1035.239	44.57227
1035.397	-16.38686
1035.555	-6.55475
1035.713	-28.18541
1035.872	-0.65547
1036.03	19.00876
1036.188	-49.81607
1036.346	146.8263
1036.504	121.26279
1036.662	-134.37228
1036.821	-12.45402
1036.979	74.06862
1037.137	70.13578
1037.295	-8.52117
1037.453	85.86716
1037.611	-2.6219
1037.769	72.1022
1037.927	36.70657
1038.085	1.31095
1038.243	-36.0511
1038.401	30.8073
1038.559	30.8073
